time,ecg0,chest_ax,chest_ay,chest_az,ecg_bittium_ecg0
2024-07-22 10:43:27.000,143.0,988.0,-21.5,-88.0,0.0
2024-07-22 10:43:27.004,166.0,,,,0.0
2024-07-22 10:43:27.008,175.0,,,,0.0
2024-07-22 10:43:27.012,172.0,,,,0.0
2024-07-22 10:43:27.016,160.0,,,,0.0
2024-07-22 10:43:27.020,144.0,,,,0.0
2024-07-22 10:43:27.024,128.0,,,,0.0
2024-07-22 10:43:27.028,112.0,,,,0.0
2024-07-22 10:43:27.032,99.0,,,,0.0
2024-07-22 10:43:27.036,93.0,,,,0.0
2024-07-22 10:43:27.040,86.0,,,,0.0
2024-07-22 10:43:27.044,77.0,,,,0.0
2024-07-22 10:43:27.048,59.0,,,,0.0
2024-07-22 10:43:27.052,38.0,,,,0.0
2024-07-22 10:43:27.056,16.0,,,,0.0
2024-07-22 10:43:27.060,6.0,,,,0.0
2024-07-22 10:43:27.064,-4.0,,,,0.0
2024-07-22 10:43:27.068,-10.0,,,,0.0
2024-07-22 10:43:27.072,-20.0,,,,0.0
2024-07-22 10:43:27.076,-29.0,,,,0.0
2024-07-22 10:43:27.080,-36.0,,,,0.0
2024-07-22 10:43:27.084,-37.0,,,,0.0
2024-07-22 10:43:27.088,-37.0,,,,0.0
2024-07-22 10:43:27.092,-33.0,,,,0.0
2024-07-22 10:43:27.096,-29.0,,,,0.0
2024-07-22 10:43:27.100,-28.0,,,,0.0
2024-07-22 10:43:27.104,-29.0,,,,0.0
2024-07-22 10:43:27.108,-31.0,,,,0.0
2024-07-22 10:43:27.112,-34.0,,,,0.0
2024-07-22 10:43:27.116,-37.0,,,,0.0
2024-07-22 10:43:27.120,-37.0,,,,0.0
2024-07-22 10:43:27.124,-39.0,,,,0.0
2024-07-22 10:43:27.128,-39.0,,,,0.0
2024-07-22 10:43:27.132,-39.0,,,,0.0
2024-07-22 10:43:27.136,-37.0,,,,0.0
2024-07-22 10:43:27.140,-36.0,,,,0.0
2024-07-22 10:43:27.144,-31.0,,,,0.0
2024-07-22 10:43:27.148,-23.0,,,,0.0
2024-07-22 10:43:27.152,-14.0,,,,0.0
2024-07-22 10:43:27.156,-7.0,,,,0.0
2024-07-22 10:43:27.160,4.0,,,,0.0
2024-07-22 10:43:27.164,38.0,,,,100.0
2024-07-22 10:43:27.168,111.0,,,,0.0
2024-07-22 10:43:27.172,205.0,,,,0.0
2024-07-22 10:43:27.176,270.0,,,,0.0
2024-07-22 10:43:27.180,239.0,,,,0.0
2024-07-22 10:43:27.184,100.0,,,,0.0
2024-07-22 10:43:27.188,-97.0,,,,0.0
2024-07-22 10:43:27.192,-258.0,,,,0.0
2024-07-22 10:43:27.196,-330.0,,,,0.0
2024-07-22 10:43:27.200,-313.0,,,,0.0
2024-07-22 10:43:27.204,-271.0,,,,0.0
2024-07-22 10:43:27.208,-252.0,,,,0.0
2024-07-22 10:43:27.212,-263.0,,,,0.0
2024-07-22 10:43:27.216,-271.0,,,,0.0
2024-07-22 10:43:27.220,-235.0,,,,0.0
2024-07-22 10:43:27.224,-155.0,,,,0.0
2024-07-22 10:43:27.228,-68.0,,,,0.0
2024-07-22 10:43:27.232,-8.0,,,,0.0
2024-07-22 10:43:27.236,12.0,,,,0.0
2024-07-22 10:43:27.240,9.0,,,,0.0
2024-07-22 10:43:27.244,3.0,,,,0.0
2024-07-22 10:43:27.248,0.0,,,,0.0
2024-07-22 10:43:27.252,0.0,,,,0.0
2024-07-22 10:43:27.256,0.0,,,,0.0
2024-07-22 10:43:27.260,6.0,,,,0.0
2024-07-22 10:43:27.264,10.0,,,,0.0
2024-07-22 10:43:27.268,12.0,,,,0.0
2024-07-22 10:43:27.272,10.0,,,,0.0
2024-07-22 10:43:27.276,10.0,,,,0.0
2024-07-22 10:43:27.280,10.0,,,,0.0
2024-07-22 10:43:27.284,12.0,,,,0.0
2024-07-22 10:43:27.288,15.0,,,,0.0
2024-07-22 10:43:27.292,15.0,,,,0.0
2024-07-22 10:43:27.296,18.0,,,,0.0
2024-07-22 10:43:27.300,24.0,,,,0.0
2024-07-22 10:43:27.304,30.0,,,,0.0
2024-07-22 10:43:27.308,36.0,,,,0.0
2024-07-22 10:43:27.312,39.0,,,,0.0
2024-07-22 10:43:27.316,39.0,,,,0.0
2024-07-22 10:43:27.320,42.0,,,,0.0
2024-07-22 10:43:27.324,48.0,,,,0.0
2024-07-22 10:43:27.328,54.0,,,,0.0
2024-07-22 10:43:27.332,64.0,,,,0.0
2024-07-22 10:43:27.336,70.0,,,,0.0
2024-07-22 10:43:27.340,77.0,,,,0.0
2024-07-22 10:43:27.344,83.0,,,,0.0
2024-07-22 10:43:27.348,86.0,,,,0.0
2024-07-22 10:43:27.352,88.0,,,,0.0
2024-07-22 10:43:27.356,91.0,,,,0.0
2024-07-22 10:43:27.360,96.0,,,,0.0
2024-07-22 10:43:27.364,105.0,,,,0.0
2024-07-22 10:43:27.368,114.0,,,,0.0
2024-07-22 10:43:27.372,126.0,,,,0.0
2024-07-22 10:43:27.376,135.0,,,,0.0
2024-07-22 10:43:27.380,144.0,,,,0.0
2024-07-22 10:43:27.384,154.0,,,,0.0
2024-07-22 10:43:27.388,167.0,,,,0.0
2024-07-22 10:43:27.392,181.0,,,,0.0
2024-07-22 10:43:27.396,195.0,,,,0.0
2024-07-22 10:43:27.400,202.0,,,,0.0
2024-07-22 10:43:27.404,210.0,,,,0.0
2024-07-22 10:43:27.408,216.0,,,,0.0
2024-07-22 10:43:27.412,222.0,,,,0.0
2024-07-22 10:43:27.416,228.0,,,,0.0
2024-07-22 10:43:27.420,234.0,,,,0.0
2024-07-22 10:43:27.424,242.0,,,,0.0
2024-07-22 10:43:27.428,248.0,,,,0.0
2024-07-22 10:43:27.432,253.0,,,,0.0
2024-07-22 10:43:27.436,253.0,,,,0.0
2024-07-22 10:43:27.440,254.0,,,,0.0
2024-07-22 10:43:27.444,253.0,,,,0.0
2024-07-22 10:43:27.448,253.0,,,,0.0
2024-07-22 10:43:27.452,254.0,,,,0.0
2024-07-22 10:43:27.456,254.0,,,,0.0
2024-07-22 10:43:27.460,253.0,,,,0.0
2024-07-22 10:43:27.464,250.0,,,,0.0
2024-07-22 10:43:27.468,241.0,,,,0.0
2024-07-22 10:43:27.472,227.0,,,,0.0
2024-07-22 10:43:27.476,212.0,,,,0.0
2024-07-22 10:43:27.480,195.0,,,,0.0
2024-07-22 10:43:27.484,173.0,,,,0.0
2024-07-22 10:43:27.488,151.0,,,,0.0
2024-07-22 10:43:27.492,131.0,,,,0.0
2024-07-22 10:43:27.496,112.0,,,,0.0
2024-07-22 10:43:27.500,99.0,,,,0.0
2024-07-22 10:43:27.504,82.0,,,,0.0
2024-07-22 10:43:27.508,65.0,,,,0.0
2024-07-22 10:43:27.512,50.0,,,,0.0
2024-07-22 10:43:27.516,38.0,,,,0.0
2024-07-22 10:43:27.520,27.0,,,,0.0
2024-07-22 10:43:27.524,22.0,,,,0.0
2024-07-22 10:43:27.528,18.0,,,,0.0
2024-07-22 10:43:27.532,15.0,,,,0.0
2024-07-22 10:43:27.536,12.0,,,,0.0
2024-07-22 10:43:27.540,13.0,,,,0.0
2024-07-22 10:43:27.544,15.0,,,,0.0
2024-07-22 10:43:27.548,15.0,,,,0.0
2024-07-22 10:43:27.552,16.0,,,,0.0
2024-07-22 10:43:27.556,18.0,,,,0.0
2024-07-22 10:43:27.560,21.0,,,,0.0
2024-07-22 10:43:27.564,18.0,,,,0.0
2024-07-22 10:43:27.568,16.0,,,,0.0
2024-07-22 10:43:27.572,12.0,,,,0.0
2024-07-22 10:43:27.576,12.0,,,,0.0
2024-07-22 10:43:27.580,13.0,996.0,-21.5,-94.0,0.0
2024-07-22 10:43:27.584,18.0,,,,0.0
2024-07-22 10:43:27.588,18.0,,,,0.0
2024-07-22 10:43:27.592,18.0,,,,0.0
2024-07-22 10:43:27.596,15.0,,,,0.0
2024-07-22 10:43:27.600,15.0,,,,0.0
2024-07-22 10:43:27.604,16.0,,,,0.0
2024-07-22 10:43:27.608,18.0,,,,0.0
2024-07-22 10:43:27.612,19.0,,,,0.0
2024-07-22 10:43:27.616,19.0,,,,0.0
2024-07-22 10:43:27.620,21.0,,,,0.0
2024-07-22 10:43:27.624,19.0,,,,0.0
2024-07-22 10:43:27.628,16.0,,,,0.0
2024-07-22 10:43:27.632,12.0,,,,0.0
2024-07-22 10:43:27.636,7.0,,,,0.0
2024-07-22 10:43:27.640,6.0,,,,0.0
2024-07-22 10:43:27.644,7.0,,,,0.0
2024-07-22 10:43:27.648,7.0,,,,0.0
2024-07-22 10:43:27.652,3.0,,,,0.0
2024-07-22 10:43:27.656,0.0,,,,0.0
2024-07-22 10:43:27.660,-2.0,,,,0.0
2024-07-22 10:43:27.664,0.0,,,,0.0
2024-07-22 10:43:27.668,4.0,,,,0.0
2024-07-22 10:43:27.672,6.0,,,,0.0
2024-07-22 10:43:27.676,9.0,,,,0.0
2024-07-22 10:43:27.680,9.0,,,,0.0
2024-07-22 10:43:27.684,9.0,,,,0.0
2024-07-22 10:43:27.688,7.0,,,,0.0
2024-07-22 10:43:27.692,4.0,,,,0.0
2024-07-22 10:43:27.696,0.0,,,,0.0
2024-07-22 10:43:27.700,-4.0,,,,0.0
2024-07-22 10:43:27.704,-7.0,,,,0.0
2024-07-22 10:43:27.708,-8.0,,,,0.0
2024-07-22 10:43:27.712,-10.0,,,,0.0
2024-07-22 10:43:27.716,-11.0,,,,0.0
2024-07-22 10:43:27.720,-14.0,,,,0.0
2024-07-22 10:43:27.724,-19.0,,,,0.0
2024-07-22 10:43:27.728,-23.0,,,,0.0
2024-07-22 10:43:27.732,-16.0,,,,0.0
2024-07-22 10:43:27.736,3.0,,,,0.0
2024-07-22 10:43:27.740,30.0,,,,0.0
2024-07-22 10:43:27.744,57.0,,,,0.0
2024-07-22 10:43:27.748,77.0,,,,0.0
2024-07-22 10:43:27.752,85.0,,,,0.0
2024-07-22 10:43:27.756,85.0,,,,0.0
2024-07-22 10:43:27.760,88.0,,,,0.0
2024-07-22 10:43:27.764,99.0,,,,0.0
2024-07-22 10:43:27.768,117.0,,,,0.0
2024-07-22 10:43:27.772,138.0,,,,0.0
2024-07-22 10:43:27.776,149.0,,,,0.0
2024-07-22 10:43:27.780,141.0,,,,0.0
2024-07-22 10:43:27.784,122.0,,,,0.0
2024-07-22 10:43:27.788,103.0,,,,0.0
2024-07-22 10:43:27.792,88.0,,,,0.0
2024-07-22 10:43:27.796,76.0,,,,0.0
2024-07-22 10:43:27.800,65.0,,,,0.0
2024-07-22 10:43:27.804,56.0,,,,0.0
2024-07-22 10:43:27.808,51.0,,,,0.0
2024-07-22 10:43:27.812,47.0,,,,0.0
2024-07-22 10:43:27.816,33.0,,,,0.0
2024-07-22 10:43:27.820,7.0,,,,0.0
2024-07-22 10:43:27.824,-20.0,,,,0.0
2024-07-22 10:43:27.828,-39.0,,,,0.0
2024-07-22 10:43:27.832,-46.0,,,,0.0
2024-07-22 10:43:27.836,-51.0,,,,0.0
2024-07-22 10:43:27.840,-57.0,,,,0.0
2024-07-22 10:43:27.844,-65.0,,,,0.0
2024-07-22 10:43:27.848,-74.0,,,,0.0
2024-07-22 10:43:27.852,-80.0,,,,0.0
2024-07-22 10:43:27.856,-81.0,,,,0.0
2024-07-22 10:43:27.860,-81.0,,,,0.0
2024-07-22 10:43:27.864,-78.0,,,,0.0
2024-07-22 10:43:27.868,-77.0,,,,0.0
2024-07-22 10:43:27.872,-78.0,,,,0.0
2024-07-22 10:43:27.876,-83.0,,,,0.0
2024-07-22 10:43:27.880,-87.0,,,,0.0
2024-07-22 10:43:27.884,-91.0,,,,0.0
2024-07-22 10:43:27.888,-89.0,,,,0.0
2024-07-22 10:43:27.892,-87.0,,,,0.0
2024-07-22 10:43:27.896,-87.0,,,,0.0
2024-07-22 10:43:27.900,-86.0,,,,0.0
2024-07-22 10:43:27.904,-86.0,,,,0.0
2024-07-22 10:43:27.908,-84.0,,,,0.0
2024-07-22 10:43:27.912,-84.0,,,,0.0
2024-07-22 10:43:27.916,-81.0,,,,0.0
2024-07-22 10:43:27.920,-72.0,,,,0.0
2024-07-22 10:43:27.924,-60.0,,,,0.0
2024-07-22 10:43:27.928,-48.0,,,,0.0
2024-07-22 10:43:27.932,-23.0,,,,100.0
2024-07-22 10:43:27.936,33.0,,,,0.0
2024-07-22 10:43:27.940,119.0,,,,0.0
2024-07-22 10:43:27.944,193.0,,,,0.0
2024-07-22 10:43:27.948,201.0,,,,0.0
2024-07-22 10:43:27.952,109.0,,,,0.0
2024-07-22 10:43:27.956,-42.0,,,,0.0
2024-07-22 10:43:27.960,-185.0,,,,0.0
2024-07-22 10:43:27.964,-255.0,,,,0.0
2024-07-22 10:43:27.968,-251.0,,,,0.0
2024-07-22 10:43:27.972,-216.0,,,,0.0
2024-07-22 10:43:27.976,-205.0,,,,0.0
2024-07-22 10:43:27.980,-232.0,,,,0.0
2024-07-22 10:43:27.984,-268.0,,,,0.0
2024-07-22 10:43:27.988,-264.0,,,,0.0
2024-07-22 10:43:27.992,-206.0,,,,0.0
2024-07-22 10:43:27.996,-124.0,,,,0.0
2024-07-22 10:43:28.000,-58.0,,,,0.0
2024-07-22 10:43:28.004,-28.0,,,,0.0
2024-07-22 10:43:28.008,-25.0,,,,0.0
2024-07-22 10:43:28.012,-26.0,,,,0.0
2024-07-22 10:43:28.016,-23.0,,,,0.0
2024-07-22 10:43:28.020,-19.0,,,,0.0
2024-07-22 10:43:28.024,-19.0,,,,0.0
2024-07-22 10:43:28.028,-22.0,,,,0.0
2024-07-22 10:43:28.032,-22.0,,,,0.0
2024-07-22 10:43:28.036,-23.0,,,,0.0
2024-07-22 10:43:28.040,-25.0,,,,0.0
2024-07-22 10:43:28.044,-28.0,,,,0.0
2024-07-22 10:43:28.048,-29.0,,,,0.0
2024-07-22 10:43:28.052,-29.0,,,,0.0
2024-07-22 10:43:28.056,-26.0,,,,0.0
2024-07-22 10:43:28.060,-22.0,,,,0.0
2024-07-22 10:43:28.064,-16.0,,,,0.0
2024-07-22 10:43:28.068,-8.0,,,,0.0
2024-07-22 10:43:28.072,0.0,,,,0.0
2024-07-22 10:43:28.076,4.0,,,,0.0
2024-07-22 10:43:28.080,6.0,,,,0.0
2024-07-22 10:43:28.084,6.0,,,,0.0
2024-07-22 10:43:28.088,7.0,,,,0.0
2024-07-22 10:43:28.092,12.0,,,,0.0
2024-07-22 10:43:28.096,21.0,,,,0.0
2024-07-22 10:43:28.100,28.0,,,,0.0
2024-07-22 10:43:28.104,36.0,,,,0.0
2024-07-22 10:43:28.108,45.0,,,,0.0
2024-07-22 10:43:28.112,53.0,,,,0.0
2024-07-22 10:43:28.116,59.0,,,,0.0
2024-07-22 10:43:28.120,61.0,,,,0.0
2024-07-22 10:43:28.124,62.0,,,,0.0
2024-07-22 10:43:28.128,65.0,,,,0.0
2024-07-22 10:43:28.132,68.0,,,,0.0
2024-07-22 10:43:28.136,73.0,,,,0.0
2024-07-22 10:43:28.140,79.0,,,,0.0
2024-07-22 10:43:28.144,85.0,,,,0.0
2024-07-22 10:43:28.148,93.0,,,,0.0
2024-07-22 10:43:28.152,102.0,,,,0.0
2024-07-22 10:43:28.156,112.0,,,,0.0
2024-07-22 10:43:28.160,122.0,1000.0,-37.5,-102.0,0.0
2024-07-22 10:43:28.164,131.0,,,,0.0
2024-07-22 10:43:28.168,138.0,,,,0.0
2024-07-22 10:43:28.172,149.0,,,,0.0
2024-07-22 10:43:28.176,160.0,,,,0.0
2024-07-22 10:43:28.180,172.0,,,,0.0
2024-07-22 10:43:28.184,184.0,,,,0.0
2024-07-22 10:43:28.188,193.0,,,,0.0
2024-07-22 10:43:28.192,201.0,,,,0.0
2024-07-22 10:43:28.196,210.0,,,,0.0
2024-07-22 10:43:28.200,222.0,,,,0.0
2024-07-22 10:43:28.204,231.0,,,,0.0
2024-07-22 10:43:28.208,239.0,,,,0.0
2024-07-22 10:43:28.212,241.0,,,,0.0
2024-07-22 10:43:28.216,241.0,,,,0.0
2024-07-22 10:43:28.220,244.0,,,,0.0
2024-07-22 10:43:28.224,250.0,,,,0.0
2024-07-22 10:43:28.228,253.0,,,,0.0
2024-07-22 10:43:28.232,248.0,,,,0.0
2024-07-22 10:43:28.236,238.0,,,,0.0
2024-07-22 10:43:28.240,224.0,,,,0.0
2024-07-22 10:43:28.244,205.0,,,,0.0
2024-07-22 10:43:28.248,187.0,,,,0.0
2024-07-22 10:43:28.252,169.0,,,,0.0
2024-07-22 10:43:28.256,151.0,,,,0.0
2024-07-22 10:43:28.260,134.0,,,,0.0
2024-07-22 10:43:28.264,117.0,,,,0.0
2024-07-22 10:43:28.268,103.0,,,,0.0
2024-07-22 10:43:28.272,90.0,,,,0.0
2024-07-22 10:43:28.276,76.0,,,,0.0
2024-07-22 10:43:28.280,62.0,,,,0.0
2024-07-22 10:43:28.284,50.0,,,,0.0
2024-07-22 10:43:28.288,39.0,,,,0.0
2024-07-22 10:43:28.292,33.0,,,,0.0
2024-07-22 10:43:28.296,27.0,,,,0.0
2024-07-22 10:43:28.300,22.0,,,,0.0
2024-07-22 10:43:28.304,18.0,,,,0.0
2024-07-22 10:43:28.308,15.0,,,,0.0
2024-07-22 10:43:28.312,12.0,,,,0.0
2024-07-22 10:43:28.316,9.0,,,,0.0
2024-07-22 10:43:28.320,7.0,,,,0.0
2024-07-22 10:43:28.324,4.0,,,,0.0
2024-07-22 10:43:28.328,6.0,,,,0.0
2024-07-22 10:43:28.332,7.0,,,,0.0
2024-07-22 10:43:28.336,9.0,,,,0.0
2024-07-22 10:43:28.340,9.0,,,,0.0
2024-07-22 10:43:28.344,9.0,,,,0.0
2024-07-22 10:43:28.348,13.0,,,,0.0
2024-07-22 10:43:28.352,19.0,,,,0.0
2024-07-22 10:43:28.356,21.0,,,,0.0
2024-07-22 10:43:28.360,21.0,,,,0.0
2024-07-22 10:43:28.364,18.0,,,,0.0
2024-07-22 10:43:28.368,12.0,,,,0.0
2024-07-22 10:43:28.372,7.0,,,,0.0
2024-07-22 10:43:28.376,7.0,,,,0.0
2024-07-22 10:43:28.380,12.0,,,,0.0
2024-07-22 10:43:28.384,18.0,,,,0.0
2024-07-22 10:43:28.388,21.0,,,,0.0
2024-07-22 10:43:28.392,18.0,,,,0.0
2024-07-22 10:43:28.396,12.0,,,,0.0
2024-07-22 10:43:28.400,6.0,,,,0.0
2024-07-22 10:43:28.404,3.0,,,,0.0
2024-07-22 10:43:28.408,1.0,,,,0.0
2024-07-22 10:43:28.412,3.0,,,,0.0
2024-07-22 10:43:28.416,4.0,,,,0.0
2024-07-22 10:43:28.420,4.0,,,,0.0
2024-07-22 10:43:28.424,0.0,,,,0.0
2024-07-22 10:43:28.428,-5.0,,,,0.0
2024-07-22 10:43:28.432,-8.0,,,,0.0
2024-07-22 10:43:28.436,-8.0,,,,0.0
2024-07-22 10:43:28.440,-5.0,,,,0.0
2024-07-22 10:43:28.444,-2.0,,,,0.0
2024-07-22 10:43:28.448,0.0,,,,0.0
2024-07-22 10:43:28.452,0.0,,,,0.0
2024-07-22 10:43:28.456,-5.0,,,,0.0
2024-07-22 10:43:28.460,-7.0,,,,0.0
2024-07-22 10:43:28.464,-8.0,,,,0.0
2024-07-22 10:43:28.468,-8.0,,,,0.0
2024-07-22 10:43:28.472,-2.0,,,,0.0
2024-07-22 10:43:28.476,3.0,,,,0.0
2024-07-22 10:43:28.480,3.0,,,,0.0
2024-07-22 10:43:28.484,1.0,,,,0.0
2024-07-22 10:43:28.488,3.0,,,,0.0
2024-07-22 10:43:28.492,3.0,,,,0.0
2024-07-22 10:43:28.496,0.0,,,,0.0
2024-07-22 10:43:28.500,-5.0,,,,0.0
2024-07-22 10:43:28.504,-5.0,,,,0.0
2024-07-22 10:43:28.508,6.0,,,,0.0
2024-07-22 10:43:28.512,28.0,,,,0.0
2024-07-22 10:43:28.516,54.0,,,,0.0
2024-07-22 10:43:28.520,74.0,,,,0.0
2024-07-22 10:43:28.524,86.0,,,,0.0
2024-07-22 10:43:28.528,93.0,,,,0.0
2024-07-22 10:43:28.532,97.0,,,,0.0
2024-07-22 10:43:28.536,106.0,,,,0.0
2024-07-22 10:43:28.540,119.0,,,,0.0
2024-07-22 10:43:28.544,137.0,,,,0.0
2024-07-22 10:43:28.548,151.0,,,,0.0
2024-07-22 10:43:28.552,155.0,,,,0.0
2024-07-22 10:43:28.556,146.0,,,,0.0
2024-07-22 10:43:28.560,129.0,,,,0.0
2024-07-22 10:43:28.564,114.0,,,,0.0
2024-07-22 10:43:28.568,102.0,,,,0.0
2024-07-22 10:43:28.572,93.0,,,,0.0
2024-07-22 10:43:28.576,86.0,,,,0.0
2024-07-22 10:43:28.580,79.0,,,,0.0
2024-07-22 10:43:28.584,70.0,,,,0.0
2024-07-22 10:43:28.588,54.0,,,,0.0
2024-07-22 10:43:28.592,30.0,,,,0.0
2024-07-22 10:43:28.596,3.0,,,,0.0
2024-07-22 10:43:28.600,-17.0,,,,0.0
2024-07-22 10:43:28.604,-26.0,,,,0.0
2024-07-22 10:43:28.608,-31.0,,,,0.0
2024-07-22 10:43:28.612,-34.0,,,,0.0
2024-07-22 10:43:28.616,-39.0,,,,0.0
2024-07-22 10:43:28.620,-43.0,,,,0.0
2024-07-22 10:43:28.624,-46.0,,,,0.0
2024-07-22 10:43:28.628,-49.0,,,,0.0
2024-07-22 10:43:28.632,-52.0,,,,0.0
2024-07-22 10:43:28.636,-55.0,,,,0.0
2024-07-22 10:43:28.640,-57.0,,,,0.0
2024-07-22 10:43:28.644,-58.0,,,,0.0
2024-07-22 10:43:28.648,-62.0,,,,0.0
2024-07-22 10:43:28.652,-69.0,,,,0.0
2024-07-22 10:43:28.656,-77.0,,,,0.0
2024-07-22 10:43:28.660,-78.0,,,,0.0
2024-07-22 10:43:28.664,-78.0,,,,0.0
2024-07-22 10:43:28.668,-75.0,,,,0.0
2024-07-22 10:43:28.672,-77.0,,,,0.0
2024-07-22 10:43:28.676,-81.0,,,,0.0
2024-07-22 10:43:28.680,-84.0,,,,0.0
2024-07-22 10:43:28.684,-84.0,,,,0.0
2024-07-22 10:43:28.688,-80.0,,,,0.0
2024-07-22 10:43:28.692,-72.0,,,,0.0
2024-07-22 10:43:28.696,-62.0,,,,0.0
2024-07-22 10:43:28.700,-54.0,,,,0.0
2024-07-22 10:43:28.704,-37.0,,,,0.0
2024-07-22 10:43:28.708,10.0,,,,100.0
2024-07-22 10:43:28.712,93.0,,,,0.0
2024-07-22 10:43:28.716,181.0,,,,0.0
2024-07-22 10:43:28.720,227.0,,,,0.0
2024-07-22 10:43:28.724,187.0,,,,0.0
2024-07-22 10:43:28.728,74.0,,,,0.0
2024-07-22 10:43:28.732,-57.0,,,,0.0
2024-07-22 10:43:28.736,-142.0,,,,0.0
2024-07-22 10:43:28.740,-155.0,,,,0.0
2024-07-22 10:43:28.744,-129.0,,,,0.0
2024-07-22 10:43:28.748,-118.0,,,,0.0
2024-07-22 10:43:28.752,-155.0,,,,0.0
2024-07-22 10:43:28.756,-217.0,,,,0.0
2024-07-22 10:43:28.760,-261.0,,,,0.0
2024-07-22 10:43:28.764,-248.0,,,,0.0
2024-07-22 10:43:28.768,-184.0,,,,0.0
2024-07-22 10:43:28.772,-110.0,,,,0.0
2024-07-22 10:43:28.776,-63.0,,,,0.0
2024-07-22 10:43:28.780,-48.0,,,,0.0
2024-07-22 10:43:28.784,-51.0,,,,0.0
2024-07-22 10:43:28.788,-57.0,,,,0.0
2024-07-22 10:43:28.792,-58.0,,,,0.0
2024-07-22 10:43:28.796,-55.0,,,,0.0
2024-07-22 10:43:28.800,-52.0,,,,0.0
2024-07-22 10:43:28.804,-46.0,,,,0.0
2024-07-22 10:43:28.808,-42.0,,,,0.0
2024-07-22 10:43:28.812,-42.0,,,,0.0
2024-07-22 10:43:28.816,-43.0,,,,0.0
2024-07-22 10:43:28.820,-45.0,,,,0.0
2024-07-22 10:43:28.824,-42.0,,,,0.0
2024-07-22 10:43:28.828,-33.0,,,,0.0
2024-07-22 10:43:28.832,-22.0,,,,0.0
2024-07-22 10:43:28.836,-16.0,,,,0.0
2024-07-22 10:43:28.840,-17.0,,,,0.0
2024-07-22 10:43:28.844,-22.0,,,,0.0
2024-07-22 10:43:28.848,-25.0,,,,0.0
2024-07-22 10:43:28.852,-23.0,,,,0.0
2024-07-22 10:43:28.856,-19.0,,,,0.0
2024-07-22 10:43:28.860,-11.0,,,,0.0
2024-07-22 10:43:28.864,-4.0,,,,0.0
2024-07-22 10:43:28.868,1.0,,,,0.0
2024-07-22 10:43:28.872,4.0,,,,0.0
2024-07-22 10:43:28.876,6.0,,,,0.0
2024-07-22 10:43:28.880,12.0,,,,0.0
2024-07-22 10:43:28.884,19.0,,,,0.0
2024-07-22 10:43:28.888,27.0,,,,0.0
2024-07-22 10:43:28.892,35.0,,,,0.0
2024-07-22 10:43:28.896,42.0,,,,0.0
2024-07-22 10:43:28.900,51.0,,,,0.0
2024-07-22 10:43:28.904,64.0,,,,0.0
2024-07-22 10:43:28.908,76.0,,,,0.0
2024-07-22 10:43:28.912,83.0,,,,0.0
2024-07-22 10:43:28.916,86.0,,,,0.0
2024-07-22 10:43:28.920,88.0,,,,0.0
2024-07-22 10:43:28.924,94.0,,,,0.0
2024-07-22 10:43:28.928,103.0,,,,0.0
2024-07-22 10:43:28.932,117.0,,,,0.0
2024-07-22 10:43:28.936,128.0,,,,0.0
2024-07-22 10:43:28.940,137.0,,,,0.0
2024-07-22 10:43:28.944,144.0,,,,0.0
2024-07-22 10:43:28.948,154.0,,,,0.0
2024-07-22 10:43:28.952,163.0,,,,0.0
2024-07-22 10:43:28.956,170.0,,,,0.0
2024-07-22 10:43:28.960,180.0,,,,0.0
2024-07-22 10:43:28.964,189.0,,,,0.0
2024-07-22 10:43:28.968,198.0,,,,0.0
2024-07-22 10:43:28.972,205.0,,,,0.0
2024-07-22 10:43:28.976,212.0,,,,0.0
2024-07-22 10:43:28.980,221.0,,,,0.0
2024-07-22 10:43:28.984,228.0,,,,0.0
2024-07-22 10:43:28.988,233.0,,,,0.0
2024-07-22 10:43:28.992,236.0,,,,0.0
2024-07-22 10:43:28.996,233.0,,,,0.0
2024-07-22 10:43:29.000,230.0,,,,0.0
2024-07-22 10:43:29.004,227.0,,,,0.0
2024-07-22 10:43:29.008,222.0,,,,0.0
2024-07-22 10:43:29.012,212.0,,,,0.0
2024-07-22 10:43:29.016,196.0,,,,0.0
2024-07-22 10:43:29.020,178.0,,,,0.0
2024-07-22 10:43:29.024,160.0,,,,0.0
2024-07-22 10:43:29.028,143.0,,,,0.0
2024-07-22 10:43:29.032,123.0,,,,0.0
2024-07-22 10:43:29.036,105.0,,,,0.0
2024-07-22 10:43:29.040,88.0,,,,0.0
2024-07-22 10:43:29.044,71.0,,,,0.0
2024-07-22 10:43:29.048,54.0,,,,0.0
2024-07-22 10:43:29.052,39.0,,,,0.0
2024-07-22 10:43:29.056,28.0,,,,0.0
2024-07-22 10:43:29.060,22.0,,,,0.0
2024-07-22 10:43:29.064,18.0,,,,0.0
2024-07-22 10:43:29.068,16.0,,,,0.0
2024-07-22 10:43:29.072,10.0,,,,0.0
2024-07-22 10:43:29.076,1.0,,,,0.0
2024-07-22 10:43:29.080,-4.0,,,,0.0
2024-07-22 10:43:29.084,-5.0,,,,0.0
2024-07-22 10:43:29.088,-5.0,,,,0.0
2024-07-22 10:43:29.092,-5.0,,,,0.0
2024-07-22 10:43:29.096,-5.0,,,,0.0
2024-07-22 10:43:29.100,-10.0,,,,0.0
2024-07-22 10:43:29.104,-14.0,,,,0.0
2024-07-22 10:43:29.108,-17.0,,,,0.0
2024-07-22 10:43:29.112,-17.0,,,,0.0
2024-07-22 10:43:29.116,-17.0,,,,0.0
2024-07-22 10:43:29.120,-14.0,,,,0.0
2024-07-22 10:43:29.124,-8.0,,,,0.0
2024-07-22 10:43:29.128,-4.0,,,,0.0
2024-07-22 10:43:29.132,3.0,,,,0.0
2024-07-22 10:43:29.136,6.0,,,,0.0
2024-07-22 10:43:29.140,4.0,,,,0.0
2024-07-22 10:43:29.144,0.0,,,,0.0
2024-07-22 10:43:29.148,-8.0,,,,0.0
2024-07-22 10:43:29.152,-13.0,,,,0.0
2024-07-22 10:43:29.156,-11.0,,,,0.0
2024-07-22 10:43:29.160,-7.0,,,,0.0
2024-07-22 10:43:29.164,-4.0,,,,0.0
2024-07-22 10:43:29.168,-7.0,,,,0.0
2024-07-22 10:43:29.172,-10.0,,,,0.0
2024-07-22 10:43:29.176,-11.0,,,,0.0
2024-07-22 10:43:29.180,-13.0,,,,0.0
2024-07-22 10:43:29.184,-11.0,,,,0.0
2024-07-22 10:43:29.188,-13.0,,,,0.0
2024-07-22 10:43:29.192,-13.0,,,,0.0
2024-07-22 10:43:29.196,-13.0,,,,0.0
2024-07-22 10:43:29.200,-10.0,,,,0.0
2024-07-22 10:43:29.204,-7.0,,,,0.0
2024-07-22 10:43:29.208,-7.0,,,,0.0
2024-07-22 10:43:29.212,-10.0,,,,0.0
2024-07-22 10:43:29.216,-13.0,,,,0.0
2024-07-22 10:43:29.220,-11.0,,,,0.0
2024-07-22 10:43:29.224,-7.0,,,,0.0
2024-07-22 10:43:29.228,-5.0,,,,0.0
2024-07-22 10:43:29.232,-7.0,,,,0.0
2024-07-22 10:43:29.236,-14.0,,,,0.0
2024-07-22 10:43:29.240,-20.0,,,,0.0
2024-07-22 10:43:29.244,-23.0,,,,0.0
2024-07-22 10:43:29.248,-22.0,,,,0.0
2024-07-22 10:43:29.252,-17.0,,,,0.0
2024-07-22 10:43:29.256,-13.0,,,,0.0
2024-07-22 10:43:29.260,-10.0,,,,0.0
2024-07-22 10:43:29.264,-11.0,,,,0.0
2024-07-22 10:43:29.268,-19.0,,,,0.0
2024-07-22 10:43:29.272,-22.0,,,,0.0
2024-07-22 10:43:29.276,-16.0,,,,0.0
2024-07-22 10:43:29.280,3.0,,,,0.0
2024-07-22 10:43:29.284,22.0,,,,0.0
2024-07-22 10:43:29.288,44.0,,,,0.0
2024-07-22 10:43:29.292,59.0,,,,0.0
2024-07-22 10:43:29.296,73.0,,,,0.0
2024-07-22 10:43:29.300,80.0,,,,0.0
2024-07-22 10:43:29.304,93.0,,,,0.0
2024-07-22 10:43:29.308,108.0,,,,0.0
2024-07-22 10:43:29.312,129.0,,,,0.0
2024-07-22 10:43:29.316,154.0,,,,0.0
2024-07-22 10:43:29.320,166.0,992.0,-37.5,-90.0,0.0
2024-07-22 10:43:29.324,163.0,,,,0.0
2024-07-22 10:43:29.328,148.0,,,,0.0
2024-07-22 10:43:29.332,131.0,,,,0.0
2024-07-22 10:43:29.336,115.0,,,,0.0
2024-07-22 10:43:29.340,100.0,990.0,-33.5,-88.0,0.0
2024-07-22 10:43:29.344,88.0,,,,0.0
2024-07-22 10:43:29.348,79.0,,,,0.0
2024-07-22 10:43:29.352,71.0,,,,0.0
2024-07-22 10:43:29.356,57.0,,,,0.0
2024-07-22 10:43:29.360,32.0,,,,0.0
2024-07-22 10:43:29.364,1.0,,,,0.0
2024-07-22 10:43:29.368,-25.0,,,,0.0
2024-07-22 10:43:29.372,-37.0,,,,0.0
2024-07-22 10:43:29.376,-43.0,,,,0.0
2024-07-22 10:43:29.380,-49.0,,,,0.0
2024-07-22 10:43:29.384,-60.0,,,,0.0
2024-07-22 10:43:29.388,-66.0,,,,0.0
2024-07-22 10:43:29.392,-68.0,,,,0.0
2024-07-22 10:43:29.396,-65.0,,,,0.0
2024-07-22 10:43:29.400,-66.0,,,,0.0
2024-07-22 10:43:29.404,-69.0,,,,0.0
2024-07-22 10:43:29.408,-72.0,,,,0.0
2024-07-22 10:43:29.412,-78.0,,,,0.0
2024-07-22 10:43:29.416,-83.0,,,,0.0
2024-07-22 10:43:29.420,-87.0,,,,0.0
2024-07-22 10:43:29.424,-91.0,,,,0.0
2024-07-22 10:43:29.428,-92.0,,,,0.0
2024-07-22 10:43:29.432,-94.0,,,,0.0
2024-07-22 10:43:29.436,-94.0,,,,0.0
2024-07-22 10:43:29.440,-91.0,,,,0.0
2024-07-22 10:43:29.444,-86.0,,,,0.0
2024-07-22 10:43:29.448,-83.0,,,,0.0
2024-07-22 10:43:29.452,-83.0,,,,0.0
2024-07-22 10:43:29.456,-81.0,,,,0.0
2024-07-22 10:43:29.460,-80.0,,,,0.0
2024-07-22 10:43:29.464,-74.0,,,,0.0
2024-07-22 10:43:29.468,-68.0,,,,0.0
2024-07-22 10:43:29.472,-57.0,,,,0.0
2024-07-22 10:43:29.476,-23.0,,,,100.0
2024-07-22 10:43:29.480,57.0,,,,0.0
2024-07-22 10:43:29.484,163.0,,,,0.0
2024-07-22 10:43:29.488,247.0,,,,0.0
2024-07-22 10:43:29.492,251.0,,,,0.0
2024-07-22 10:43:29.496,152.0,,,,0.0
2024-07-22 10:43:29.500,-11.0,,,,0.0
2024-07-22 10:43:29.504,-162.0,,,,0.0
2024-07-22 10:43:29.508,-246.0,,,,0.0
2024-07-22 10:43:29.512,-255.0,,,,0.0
2024-07-22 10:43:29.516,-237.0,,,,0.0
2024-07-22 10:43:29.520,-234.0,,,,0.0
2024-07-22 10:43:29.524,-252.0,,,,0.0
2024-07-22 10:43:29.528,-263.0,,,,0.0
2024-07-22 10:43:29.532,-232.0,,,,0.0
2024-07-22 10:43:29.536,-159.0,,,,0.0
2024-07-22 10:43:29.540,-80.0,,,,0.0
2024-07-22 10:43:29.544,-29.0,,,,0.0
2024-07-22 10:43:29.548,-16.0,,,,0.0
2024-07-22 10:43:29.552,-20.0,,,,0.0
2024-07-22 10:43:29.556,-28.0,,,,0.0
2024-07-22 10:43:29.560,-31.0,,,,0.0
2024-07-22 10:43:29.564,-36.0,,,,0.0
2024-07-22 10:43:29.568,-43.0,,,,0.0
2024-07-22 10:43:29.572,-46.0,,,,0.0
2024-07-22 10:43:29.576,-46.0,,,,0.0
2024-07-22 10:43:29.580,-39.0,,,,0.0
2024-07-22 10:43:29.584,-31.0,,,,0.0
2024-07-22 10:43:29.588,-26.0,,,,0.0
2024-07-22 10:43:29.592,-25.0,,,,0.0
2024-07-22 10:43:29.596,-23.0,,,,0.0
2024-07-22 10:43:29.600,-20.0,,,,0.0
2024-07-22 10:43:29.604,-16.0,,,,0.0
2024-07-22 10:43:29.608,-10.0,,,,0.0
2024-07-22 10:43:29.612,-5.0,,,,0.0
2024-07-22 10:43:29.616,0.0,,,,0.0
2024-07-22 10:43:29.620,1.0,,,,0.0
2024-07-22 10:43:29.624,3.0,,,,0.0
2024-07-22 10:43:29.628,3.0,,,,0.0
2024-07-22 10:43:29.632,3.0,,,,0.0
2024-07-22 10:43:29.636,3.0,,,,0.0
2024-07-22 10:43:29.640,7.0,,,,0.0
2024-07-22 10:43:29.644,16.0,,,,0.0
2024-07-22 10:43:29.648,27.0,,,,0.0
2024-07-22 10:43:29.652,35.0,,,,0.0
2024-07-22 10:43:29.656,42.0,,,,0.0
2024-07-22 10:43:29.660,50.0,,,,0.0
2024-07-22 10:43:29.664,61.0,,,,0.0
2024-07-22 10:43:29.668,71.0,,,,0.0
2024-07-22 10:43:29.672,80.0,,,,0.0
2024-07-22 10:43:29.676,83.0,,,,0.0
2024-07-22 10:43:29.680,88.0,,,,0.0
2024-07-22 10:43:29.684,93.0,,,,0.0
2024-07-22 10:43:29.688,102.0,,,,0.0
2024-07-22 10:43:29.692,112.0,,,,0.0
2024-07-22 10:43:29.696,123.0,,,,0.0
2024-07-22 10:43:29.700,134.0,,,,0.0
2024-07-22 10:43:29.704,146.0,,,,0.0
2024-07-22 10:43:29.708,160.0,,,,0.0
2024-07-22 10:43:29.712,173.0,,,,0.0
2024-07-22 10:43:29.716,183.0,,,,0.0
2024-07-22 10:43:29.720,192.0,,,,0.0
2024-07-22 10:43:29.724,199.0,,,,0.0
2024-07-22 10:43:29.728,212.0,,,,0.0
2024-07-22 10:43:29.732,227.0,,,,0.0
2024-07-22 10:43:29.736,239.0,,,,0.0
2024-07-22 10:43:29.740,250.0,,,,0.0
2024-07-22 10:43:29.744,259.0,,,,0.0
2024-07-22 10:43:29.748,267.0,,,,0.0
2024-07-22 10:43:29.752,273.0,,,,0.0
2024-07-22 10:43:29.756,279.0,,,,0.0
2024-07-22 10:43:29.760,280.0,,,,0.0
2024-07-22 10:43:29.764,280.0,,,,0.0
2024-07-22 10:43:29.768,277.0,,,,0.0
2024-07-22 10:43:29.772,273.0,,,,0.0
2024-07-22 10:43:29.776,263.0,,,,0.0
2024-07-22 10:43:29.780,251.0,,,,0.0
2024-07-22 10:43:29.784,236.0,,,,0.0
2024-07-22 10:43:29.788,221.0,,,,0.0
2024-07-22 10:43:29.792,202.0,,,,0.0
2024-07-22 10:43:29.796,181.0,,,,0.0
2024-07-22 10:43:29.800,158.0,,,,0.0
2024-07-22 10:43:29.804,134.0,,,,0.0
2024-07-22 10:43:29.808,109.0,,,,0.0
2024-07-22 10:43:29.812,88.0,,,,0.0
2024-07-22 10:43:29.816,68.0,,,,0.0
2024-07-22 10:43:29.820,51.0,,,,0.0
2024-07-22 10:43:29.824,39.0,,,,0.0
2024-07-22 10:43:29.828,30.0,,,,0.0
2024-07-22 10:43:29.832,22.0,,,,0.0
2024-07-22 10:43:29.836,13.0,,,,0.0
2024-07-22 10:43:29.840,4.0,,,,0.0
2024-07-22 10:43:29.844,-5.0,,,,0.0
2024-07-22 10:43:29.848,-11.0,,,,0.0
2024-07-22 10:43:29.852,-13.0,,,,0.0
2024-07-22 10:43:29.856,-13.0,,,,0.0
2024-07-22 10:43:29.860,-11.0,,,,0.0
2024-07-22 10:43:29.864,-14.0,,,,0.0
2024-07-22 10:43:29.868,-16.0,,,,0.0
2024-07-22 10:43:29.872,-13.0,,,,0.0
2024-07-22 10:43:29.876,-8.0,,,,0.0
2024-07-22 10:43:29.880,-2.0,,,,0.0
2024-07-22 10:43:29.884,3.0,,,,0.0
2024-07-22 10:43:29.888,6.0,,,,0.0
2024-07-22 10:43:29.892,6.0,,,,0.0
2024-07-22 10:43:29.896,6.0,,,,0.0
2024-07-22 10:43:29.900,1.0,,,,0.0
2024-07-22 10:43:29.904,-2.0,,,,0.0
2024-07-22 10:43:29.908,-4.0,,,,0.0
2024-07-22 10:43:29.912,-4.0,,,,0.0
2024-07-22 10:43:29.916,-4.0,,,,0.0
2024-07-22 10:43:29.920,-2.0,,,,0.0
2024-07-22 10:43:29.924,-2.0,,,,0.0
2024-07-22 10:43:29.928,0.0,,,,0.0
2024-07-22 10:43:29.932,1.0,,,,0.0
2024-07-22 10:43:29.936,6.0,,,,0.0
2024-07-22 10:43:29.940,7.0,,,,0.0
2024-07-22 10:43:29.944,4.0,,,,0.0
2024-07-22 10:43:29.948,0.0,,,,0.0
2024-07-22 10:43:29.952,-5.0,,,,0.0
2024-07-22 10:43:29.956,-5.0,,,,0.0
2024-07-22 10:43:29.960,-5.0,,,,0.0
2024-07-22 10:43:29.964,-5.0,,,,0.0
2024-07-22 10:43:29.968,-4.0,,,,0.0
2024-07-22 10:43:29.972,-7.0,,,,0.0
2024-07-22 10:43:29.976,-7.0,,,,0.0
2024-07-22 10:43:29.980,-8.0,,,,0.0
2024-07-22 10:43:29.984,-13.0,,,,0.0
2024-07-22 10:43:29.988,-17.0,,,,0.0
2024-07-22 10:43:29.992,-17.0,,,,0.0
2024-07-22 10:43:29.996,-14.0,,,,0.0
2024-07-22 10:43:30.000,-11.0,,,,0.0
2024-07-22 10:43:30.004,-10.0,,,,0.0
2024-07-22 10:43:30.008,-8.0,,,,0.0
2024-07-22 10:43:30.012,-5.0,,,,0.0
2024-07-22 10:43:30.016,0.0,,,,0.0
2024-07-22 10:43:30.020,1.0,,,,0.0
2024-07-22 10:43:30.024,1.0,,,,0.0
2024-07-22 10:43:30.028,-4.0,,,,0.0
2024-07-22 10:43:30.032,-10.0,,,,0.0
2024-07-22 10:43:30.036,-16.0,,,,0.0
2024-07-22 10:43:30.040,-14.0,,,,0.0
2024-07-22 10:43:30.044,-4.0,,,,0.0
2024-07-22 10:43:30.048,18.0,,,,0.0
2024-07-22 10:43:30.052,44.0,,,,0.0
2024-07-22 10:43:30.056,68.0,,,,0.0
2024-07-22 10:43:30.060,82.0,,,,0.0
2024-07-22 10:43:30.064,88.0,,,,0.0
2024-07-22 10:43:30.068,90.0,,,,0.0
2024-07-22 10:43:30.072,96.0,,,,0.0
2024-07-22 10:43:30.076,112.0,,,,0.0
2024-07-22 10:43:30.080,138.0,,,,0.0
2024-07-22 10:43:30.084,160.0,,,,0.0
2024-07-22 10:43:30.088,163.0,,,,0.0
2024-07-22 10:43:30.092,148.0,,,,0.0
2024-07-22 10:43:30.096,123.0,,,,0.0
2024-07-22 10:43:30.100,99.0,,,,0.0
2024-07-22 10:43:30.104,80.0,,,,0.0
2024-07-22 10:43:30.108,64.0,,,,0.0
2024-07-22 10:43:30.112,56.0,,,,0.0
2024-07-22 10:43:30.116,50.0,,,,0.0
2024-07-22 10:43:30.120,39.0,,,,0.0
2024-07-22 10:43:30.124,19.0,,,,0.0
2024-07-22 10:43:30.128,-10.0,,,,0.0
2024-07-22 10:43:30.132,-39.0,,,,0.0
2024-07-22 10:43:30.136,-55.0,,,,0.0
2024-07-22 10:43:30.140,-60.0,,,,0.0
2024-07-22 10:43:30.144,-65.0,,,,0.0
2024-07-22 10:43:30.148,-69.0,,,,0.0
2024-07-22 10:43:30.152,-77.0,,,,0.0
2024-07-22 10:43:30.156,-81.0,,,,0.0
2024-07-22 10:43:30.160,-86.0,,,,0.0
2024-07-22 10:43:30.164,-87.0,,,,0.0
2024-07-22 10:43:30.168,-87.0,,,,0.0
2024-07-22 10:43:30.172,-84.0,,,,0.0
2024-07-22 10:43:30.176,-84.0,,,,0.0
2024-07-22 10:43:30.180,-84.0,,,,0.0
2024-07-22 10:43:30.184,-86.0,,,,0.0
2024-07-22 10:43:30.188,-86.0,,,,0.0
2024-07-22 10:43:30.192,-87.0,,,,0.0
2024-07-22 10:43:30.196,-87.0,,,,0.0
2024-07-22 10:43:30.200,-86.0,,,,0.0
2024-07-22 10:43:30.204,-84.0,,,,0.0
2024-07-22 10:43:30.208,-83.0,,,,0.0
2024-07-22 10:43:30.212,-81.0,,,,0.0
2024-07-22 10:43:30.216,-80.0,,,,0.0
2024-07-22 10:43:30.220,-78.0,,,,0.0
2024-07-22 10:43:30.224,-74.0,,,,0.0
2024-07-22 10:43:30.228,-69.0,,,,0.0
2024-07-22 10:43:30.232,-65.0,,,,0.0
2024-07-22 10:43:30.236,-60.0,,,,0.0
2024-07-22 10:43:30.240,-37.0,,,,0.0
2024-07-22 10:43:30.244,27.0,,,,100.0
2024-07-22 10:43:30.248,123.0,,,,0.0
2024-07-22 10:43:30.252,213.0,,,,0.0
2024-07-22 10:43:30.256,233.0,,,,0.0
2024-07-22 10:43:30.260,144.0,,,,0.0
2024-07-22 10:43:30.264,-22.0,,,,0.0
2024-07-22 10:43:30.268,-199.0,,,,0.0
2024-07-22 10:43:30.272,-315.0,,,,0.0
2024-07-22 10:43:30.276,-348.0,,,,0.0
2024-07-22 10:43:30.280,-326.0,,,,0.0
2024-07-22 10:43:30.284,-304.0,,,,0.0
2024-07-22 10:43:30.288,-303.0,,,,0.0
2024-07-22 10:43:30.292,-304.0,,,,0.0
2024-07-22 10:43:30.296,-275.0,,,,0.0
2024-07-22 10:43:30.300,-202.0,,,,0.0
2024-07-22 10:43:30.304,-120.0,,,,0.0
2024-07-22 10:43:30.308,-62.0,,,,0.0
2024-07-22 10:43:30.312,-40.0,,,,0.0
2024-07-22 10:43:30.316,-45.0,,,,0.0
2024-07-22 10:43:30.320,-51.0,,,,0.0
2024-07-22 10:43:30.324,-48.0,,,,0.0
2024-07-22 10:43:30.328,-43.0,,,,0.0
2024-07-22 10:43:30.332,-42.0,,,,0.0
2024-07-22 10:43:30.336,-42.0,,,,0.0
2024-07-22 10:43:30.340,-40.0,,,,0.0
2024-07-22 10:43:30.344,-36.0,,,,0.0
2024-07-22 10:43:30.348,-36.0,,,,0.0
2024-07-22 10:43:30.352,-34.0,,,,0.0
2024-07-22 10:43:30.356,-34.0,,,,0.0
2024-07-22 10:43:30.360,-31.0,,,,0.0
2024-07-22 10:43:30.364,-26.0,,,,0.0
2024-07-22 10:43:30.368,-19.0,,,,0.0
2024-07-22 10:43:30.372,-14.0,,,,0.0
2024-07-22 10:43:30.376,-13.0,,,,0.0
2024-07-22 10:43:30.380,-13.0,,,,0.0
2024-07-22 10:43:30.384,-10.0,,,,0.0
2024-07-22 10:43:30.388,-2.0,,,,0.0
2024-07-22 10:43:30.392,6.0,,,,0.0
2024-07-22 10:43:30.396,10.0,,,,0.0
2024-07-22 10:43:30.400,16.0,,,,0.0
2024-07-22 10:43:30.404,22.0,,,,0.0
2024-07-22 10:43:30.408,25.0,,,,0.0
2024-07-22 10:43:30.412,30.0,,,,0.0
2024-07-22 10:43:30.416,36.0,,,,0.0
2024-07-22 10:43:30.420,44.0,,,,0.0
2024-07-22 10:43:30.424,54.0,,,,0.0
2024-07-22 10:43:30.428,64.0,,,,0.0
2024-07-22 10:43:30.432,71.0,,,,0.0
2024-07-22 10:43:30.436,76.0,,,,0.0
2024-07-22 10:43:30.440,80.0,,,,0.0
2024-07-22 10:43:30.444,90.0,,,,0.0
2024-07-22 10:43:30.448,106.0,,,,0.0
2024-07-22 10:43:30.452,122.0,,,,0.0
2024-07-22 10:43:30.456,137.0,,,,0.0
2024-07-22 10:43:30.460,146.0,,,,0.0
2024-07-22 10:43:30.464,152.0,,,,0.0
2024-07-22 10:43:30.468,158.0,,,,0.0
2024-07-22 10:43:30.472,166.0,,,,0.0
2024-07-22 10:43:30.476,178.0,,,,0.0
2024-07-22 10:43:30.480,192.0,,,,0.0
2024-07-22 10:43:30.484,207.0,,,,0.0
2024-07-22 10:43:30.488,222.0,,,,0.0
2024-07-22 10:43:30.492,236.0,,,,0.0
2024-07-22 10:43:30.496,245.0,,,,0.0
2024-07-22 10:43:30.500,251.0,,,,0.0
2024-07-22 10:43:30.504,256.0,,,,0.0
2024-07-22 10:43:30.508,262.0,,,,0.0
2024-07-22 10:43:30.512,271.0,,,,0.0
2024-07-22 10:43:30.516,276.0,,,,0.0
2024-07-22 10:43:30.520,279.0,,,,0.0
2024-07-22 10:43:30.524,280.0,,,,0.0
2024-07-22 10:43:30.528,283.0,,,,0.0
2024-07-22 10:43:30.532,283.0,,,,0.0
2024-07-22 10:43:30.536,279.0,,,,0.0
2024-07-22 10:43:30.540,268.0,,,,0.0
2024-07-22 10:43:30.544,251.0,,,,0.0
2024-07-22 10:43:30.548,231.0,,,,0.0
2024-07-22 10:43:30.552,212.0,,,,0.0
2024-07-22 10:43:30.556,193.0,,,,0.0
2024-07-22 10:43:30.560,173.0,,,,0.0
2024-07-22 10:43:30.564,154.0,,,,0.0
2024-07-22 10:43:30.568,131.0,,,,0.0
2024-07-22 10:43:30.572,108.0,,,,0.0
2024-07-22 10:43:30.576,85.0,,,,0.0
2024-07-22 10:43:30.580,65.0,,,,0.0
2024-07-22 10:43:30.584,50.0,,,,0.0
2024-07-22 10:43:30.588,44.0,,,,0.0
2024-07-22 10:43:30.592,39.0,,,,0.0
2024-07-22 10:43:30.596,35.0,,,,0.0
2024-07-22 10:43:30.600,27.0,,,,0.0
2024-07-22 10:43:30.604,22.0,,,,0.0
2024-07-22 10:43:30.608,19.0,,,,0.0
2024-07-22 10:43:30.612,18.0,,,,0.0
2024-07-22 10:43:30.616,15.0,,,,0.0
2024-07-22 10:43:30.620,12.0,,,,0.0
2024-07-22 10:43:30.624,10.0,,,,0.0
2024-07-22 10:43:30.628,10.0,,,,0.0
2024-07-22 10:43:30.632,10.0,,,,0.0
2024-07-22 10:43:30.636,7.0,,,,0.0
2024-07-22 10:43:30.640,0.0,,,,0.0
2024-07-22 10:43:30.644,-7.0,,,,0.0
2024-07-22 10:43:30.648,-8.0,,,,0.0
2024-07-22 10:43:30.652,-7.0,,,,0.0
2024-07-22 10:43:30.656,-5.0,,,,0.0
2024-07-22 10:43:30.660,-7.0,,,,0.0
2024-07-22 10:43:30.664,-7.0,,,,0.0
2024-07-22 10:43:30.668,-7.0,,,,0.0
2024-07-22 10:43:30.672,-4.0,,,,0.0
2024-07-22 10:43:30.676,1.0,,,,0.0
2024-07-22 10:43:30.680,4.0,,,,0.0
2024-07-22 10:43:30.684,6.0,,,,0.0
2024-07-22 10:43:30.688,4.0,,,,0.0
2024-07-22 10:43:30.692,1.0,,,,0.0
2024-07-22 10:43:30.696,-5.0,,,,0.0
2024-07-22 10:43:30.700,-8.0,,,,0.0
2024-07-22 10:43:30.704,-10.0,,,,0.0
2024-07-22 10:43:30.708,-10.0,,,,0.0
2024-07-22 10:43:30.712,-11.0,,,,0.0
2024-07-22 10:43:30.716,-11.0,,,,0.0
2024-07-22 10:43:30.720,-10.0,,,,0.0
2024-07-22 10:43:30.724,-7.0,,,,0.0
2024-07-22 10:43:30.728,-8.0,,,,0.0
2024-07-22 10:43:30.732,-10.0,,,,0.0
2024-07-22 10:43:30.736,-13.0,,,,0.0
2024-07-22 10:43:30.740,-14.0,,,,0.0
2024-07-22 10:43:30.744,-16.0,,,,0.0
2024-07-22 10:43:30.748,-17.0,,,,0.0
2024-07-22 10:43:30.752,-20.0,,,,0.0
2024-07-22 10:43:30.756,-20.0,,,,0.0
2024-07-22 10:43:30.760,-17.0,,,,0.0
2024-07-22 10:43:30.764,-16.0,,,,0.0
2024-07-22 10:43:30.768,-16.0,,,,0.0
2024-07-22 10:43:30.772,-16.0,,,,0.0
2024-07-22 10:43:30.776,-17.0,,,,0.0
2024-07-22 10:43:30.780,-19.0,,,,0.0
2024-07-22 10:43:30.784,-22.0,,,,0.0
2024-07-22 10:43:30.788,-26.0,,,,0.0
2024-07-22 10:43:30.792,-28.0,,,,0.0
2024-07-22 10:43:30.796,-33.0,,,,0.0
2024-07-22 10:43:30.800,-34.0,,,,0.0
2024-07-22 10:43:30.804,-34.0,,,,0.0
2024-07-22 10:43:30.808,-33.0,,,,0.0
2024-07-22 10:43:30.812,-23.0,,,,0.0
2024-07-22 10:43:30.816,-8.0,,,,0.0
2024-07-22 10:43:30.820,12.0,,,,0.0
2024-07-22 10:43:30.824,33.0,,,,0.0
2024-07-22 10:43:30.828,50.0,,,,0.0
2024-07-22 10:43:30.832,62.0,,,,0.0
2024-07-22 10:43:30.836,65.0,,,,0.0
2024-07-22 10:43:30.840,71.0,,,,0.0
2024-07-22 10:43:30.844,85.0,,,,0.0
2024-07-22 10:43:30.848,105.0,,,,0.0
2024-07-22 10:43:30.852,126.0,,,,0.0
2024-07-22 10:43:30.856,137.0,,,,0.0
2024-07-22 10:43:30.860,129.0,,,,0.0
2024-07-22 10:43:30.864,112.0,,,,0.0
2024-07-22 10:43:30.868,93.0,,,,0.0
2024-07-22 10:43:30.872,77.0,,,,0.0
2024-07-22 10:43:30.876,65.0,,,,0.0
2024-07-22 10:43:30.880,54.0,,,,0.0
2024-07-22 10:43:30.884,50.0,,,,0.0
2024-07-22 10:43:30.888,47.0,,,,0.0
2024-07-22 10:43:30.892,39.0,,,,0.0
2024-07-22 10:43:30.896,19.0,,,,0.0
2024-07-22 10:43:30.900,-10.0,,,,0.0
2024-07-22 10:43:30.904,-34.0,,,,0.0
2024-07-22 10:43:30.908,-46.0,,,,0.0
2024-07-22 10:43:30.912,-51.0,,,,0.0
2024-07-22 10:43:30.916,-55.0,,,,0.0
2024-07-22 10:43:30.920,-65.0,,,,0.0
2024-07-22 10:43:30.924,-77.0,,,,0.0
2024-07-22 10:43:30.928,-86.0,,,,0.0
2024-07-22 10:43:30.932,-89.0,,,,0.0
2024-07-22 10:43:30.936,-89.0,,,,0.0
2024-07-22 10:43:30.940,-89.0,,,,0.0
2024-07-22 10:43:30.944,-94.0,,,,0.0
2024-07-22 10:43:30.948,-100.0,,,,0.0
2024-07-22 10:43:30.952,-107.0,,,,0.0
2024-07-22 10:43:30.956,-110.0,,,,0.0
2024-07-22 10:43:30.960,-109.0,,,,0.0
2024-07-22 10:43:30.964,-104.0,,,,0.0
2024-07-22 10:43:30.968,-101.0,,,,0.0
2024-07-22 10:43:30.972,-100.0,,,,0.0
2024-07-22 10:43:30.976,-97.0,,,,0.0
2024-07-22 10:43:30.980,-97.0,,,,0.0
2024-07-22 10:43:30.984,-97.0,,,,0.0
2024-07-22 10:43:30.988,-95.0,,,,0.0
2024-07-22 10:43:30.992,-92.0,,,,0.0
2024-07-22 10:43:30.996,-83.0,,,,0.0
2024-07-22 10:43:31.000,-72.0,,,,0.0
2024-07-22 10:43:31.004,-62.0,,,,0.0
2024-07-22 10:43:31.008,-52.0,,,,0.0
2024-07-22 10:43:31.012,-25.0,,,,0.0
2024-07-22 10:43:31.016,42.0,,,,100.0
2024-07-22 10:43:31.020,138.0,,,,0.0
2024-07-22 10:43:31.024,218.0,,,,0.0
2024-07-22 10:43:31.028,221.0,,,,0.0
2024-07-22 10:43:31.032,117.0,,,,0.0
2024-07-22 10:43:31.036,-62.0,,,,0.0
2024-07-22 10:43:31.040,-239.0,,,,0.0
2024-07-22 10:43:31.044,-345.0,,,,0.0
2024-07-22 10:43:31.048,-364.0,,,,0.0
2024-07-22 10:43:31.052,-338.0,,,,0.0
2024-07-22 10:43:31.056,-315.0,,,,0.0
2024-07-22 10:43:31.060,-318.0,,,,0.0
2024-07-22 10:43:31.064,-324.0,,,,0.0
2024-07-22 10:43:31.068,-297.0,,,,0.0
2024-07-22 10:43:31.072,-222.0,,,,0.0
2024-07-22 10:43:31.076,-133.0,,,,0.0
2024-07-22 10:43:31.080,-69.0,,,,0.0
2024-07-22 10:43:31.084,-45.0,,,,0.0
2024-07-22 10:43:31.088,-48.0,,,,0.0
2024-07-22 10:43:31.092,-55.0,,,,0.0
2024-07-22 10:43:31.096,-52.0,,,,0.0
2024-07-22 10:43:31.100,-48.0,1011.5,-23.5,-74.5,0.0
2024-07-22 10:43:31.104,-43.0,,,,0.0
2024-07-22 10:43:31.108,-40.0,,,,0.0
2024-07-22 10:43:31.112,-40.0,,,,0.0
2024-07-22 10:43:31.116,-40.0,,,,0.0
2024-07-22 10:43:31.120,-39.0,,,,0.0
2024-07-22 10:43:31.124,-37.0,,,,0.0
2024-07-22 10:43:31.128,-34.0,,,,0.0
2024-07-22 10:43:31.132,-31.0,,,,0.0
2024-07-22 10:43:31.136,-29.0,,,,0.0
2024-07-22 10:43:31.140,-28.0,1005.5,-12.0,-86.0,0.0
2024-07-22 10:43:31.144,-26.0,,,,0.0
2024-07-22 10:43:31.148,-26.0,,,,0.0
2024-07-22 10:43:31.152,-25.0,,,,0.0
2024-07-22 10:43:31.156,-25.0,,,,0.0
2024-07-22 10:43:31.160,-20.0,,,,0.0
2024-07-22 10:43:31.164,-16.0,,,,0.0
2024-07-22 10:43:31.168,-11.0,,,,0.0
2024-07-22 10:43:31.172,-5.0,,,,0.0
2024-07-22 10:43:31.176,1.0,,,,0.0
2024-07-22 10:43:31.180,9.0,992.0,25.0,-113.5,0.0
2024-07-22 10:43:31.184,16.0,,,,0.0
2024-07-22 10:43:31.188,22.0,,,,0.0
2024-07-22 10:43:31.192,25.0,,,,0.0
2024-07-22 10:43:31.196,27.0,,,,0.0
2024-07-22 10:43:31.200,30.0,,,,0.0
2024-07-22 10:43:31.204,33.0,,,,0.0
2024-07-22 10:43:31.208,39.0,,,,0.0
2024-07-22 10:43:31.212,39.0,,,,0.0
2024-07-22 10:43:31.216,42.0,,,,0.0
2024-07-22 10:43:31.220,45.0,945.0,50.5,-146.5,0.0
2024-07-22 10:43:31.224,54.0,,,,0.0
2024-07-22 10:43:31.228,68.0,,,,0.0
2024-07-22 10:43:31.232,88.0,,,,0.0
2024-07-22 10:43:31.236,106.0,,,,0.0
2024-07-22 10:43:31.240,122.0,,,,0.0
2024-07-22 10:43:31.244,131.0,,,,0.0
2024-07-22 10:43:31.248,137.0,,,,0.0
2024-07-22 10:43:31.252,140.0,,,,0.0
2024-07-22 10:43:31.256,146.0,,,,0.0
2024-07-22 10:43:31.260,154.0,990.0,15.5,-129.0,0.0
2024-07-22 10:43:31.264,163.0,,,,0.0
2024-07-22 10:43:31.268,170.0,,,,0.0
2024-07-22 10:43:31.272,181.0,,,,0.0
2024-07-22 10:43:31.276,193.0,,,,0.0
2024-07-22 10:43:31.280,205.0,,,,0.0
2024-07-22 10:43:31.284,213.0,,,,0.0
2024-07-22 10:43:31.288,221.0,,,,0.0
2024-07-22 10:43:31.292,224.0,,,,0.0
2024-07-22 10:43:31.296,227.0,,,,0.0
2024-07-22 10:43:31.300,228.0,,,,0.0
2024-07-22 10:43:31.304,221.0,,,,0.0
2024-07-22 10:43:31.308,209.0,,,,0.0
2024-07-22 10:43:31.312,196.0,,,,0.0
2024-07-22 10:43:31.316,186.0,,,,0.0
2024-07-22 10:43:31.320,180.0,,,,0.0
2024-07-22 10:43:31.324,169.0,,,,0.0
2024-07-22 10:43:31.328,149.0,,,,0.0
2024-07-22 10:43:31.332,128.0,,,,0.0
2024-07-22 10:43:31.336,109.0,,,,0.0
2024-07-22 10:43:31.340,94.0,,,,0.0
2024-07-22 10:43:31.344,83.0,,,,0.0
2024-07-22 10:43:31.348,65.0,,,,0.0
2024-07-22 10:43:31.352,44.0,,,,0.0
2024-07-22 10:43:31.356,22.0,,,,0.0
2024-07-22 10:43:31.360,9.0,,,,0.0
2024-07-22 10:43:31.364,0.0,,,,0.0
2024-07-22 10:43:31.368,-4.0,,,,0.0
2024-07-22 10:43:31.372,-8.0,,,,0.0
2024-07-22 10:43:31.376,-13.0,,,,0.0
2024-07-22 10:43:31.380,-20.0,,,,0.0
2024-07-22 10:43:31.384,-28.0,,,,0.0
2024-07-22 10:43:31.388,-36.0,,,,0.0
2024-07-22 10:43:31.392,-40.0,,,,0.0
2024-07-22 10:43:31.396,-42.0,,,,0.0
2024-07-22 10:43:31.400,-46.0,,,,0.0
2024-07-22 10:43:31.404,-51.0,,,,0.0
2024-07-22 10:43:31.408,-58.0,,,,0.0
2024-07-22 10:43:31.412,-63.0,,,,0.0
2024-07-22 10:43:31.416,-62.0,,,,0.0
2024-07-22 10:43:31.420,-55.0,,,,0.0
2024-07-22 10:43:31.424,-49.0,,,,0.0
2024-07-22 10:43:31.428,-48.0,,,,0.0
2024-07-22 10:43:31.432,-52.0,,,,0.0
2024-07-22 10:43:31.436,-57.0,,,,0.0
2024-07-22 10:43:31.440,-58.0,,,,0.0
2024-07-22 10:43:31.444,-58.0,,,,0.0
2024-07-22 10:43:31.448,-55.0,,,,0.0
2024-07-22 10:43:31.452,-57.0,,,,0.0
2024-07-22 10:43:31.456,-60.0,,,,0.0
2024-07-22 10:43:31.460,-65.0,,,,0.0
2024-07-22 10:43:31.464,-68.0,,,,0.0
2024-07-22 10:43:31.468,-65.0,,,,0.0
2024-07-22 10:43:31.472,-60.0,,,,0.0
2024-07-22 10:43:31.476,-58.0,,,,0.0
2024-07-22 10:43:31.480,-60.0,,,,0.0
2024-07-22 10:43:31.484,-66.0,,,,0.0
2024-07-22 10:43:31.488,-69.0,,,,0.0
2024-07-22 10:43:31.492,-69.0,,,,0.0
2024-07-22 10:43:31.496,-66.0,,,,0.0
2024-07-22 10:43:31.500,-63.0,,,,0.0
2024-07-22 10:43:31.504,-65.0,,,,0.0
2024-07-22 10:43:31.508,-66.0,,,,0.0
2024-07-22 10:43:31.512,-68.0,,,,0.0
2024-07-22 10:43:31.516,-69.0,,,,0.0
2024-07-22 10:43:31.520,-69.0,,,,0.0
2024-07-22 10:43:31.524,-69.0,,,,0.0
2024-07-22 10:43:31.528,-71.0,,,,0.0
2024-07-22 10:43:31.532,-74.0,,,,0.0
2024-07-22 10:43:31.536,-75.0,,,,0.0
2024-07-22 10:43:31.540,-75.0,,,,0.0
2024-07-22 10:43:31.544,-72.0,,,,0.0
2024-07-22 10:43:31.548,-68.0,,,,0.0
2024-07-22 10:43:31.552,-65.0,,,,0.0
2024-07-22 10:43:31.556,-62.0,,,,0.0
2024-07-22 10:43:31.560,-62.0,,,,0.0
2024-07-22 10:43:31.564,-63.0,,,,0.0
2024-07-22 10:43:31.568,-68.0,,,,0.0
2024-07-22 10:43:31.572,-71.0,,,,0.0
2024-07-22 10:43:31.576,-69.0,,,,0.0
2024-07-22 10:43:31.580,-60.0,,,,0.0
2024-07-22 10:43:31.584,-42.0,,,,0.0
2024-07-22 10:43:31.588,-20.0,,,,0.0
2024-07-22 10:43:31.592,-11.0,,,,0.0
2024-07-22 10:43:31.596,-22.0,,,,0.0
2024-07-22 10:43:31.600,-45.0,,,,0.0
2024-07-22 10:43:31.604,-57.0,,,,0.0
2024-07-22 10:43:31.608,-39.0,,,,0.0
2024-07-22 10:43:31.612,10.0,,,,0.0
2024-07-22 10:43:31.616,68.0,,,,0.0
2024-07-22 10:43:31.620,111.0,,,,0.0
2024-07-22 10:43:31.624,125.0,,,,0.0
2024-07-22 10:43:31.628,111.0,,,,0.0
2024-07-22 10:43:31.632,90.0,,,,0.0
2024-07-22 10:43:31.636,67.0,,,,0.0
2024-07-22 10:43:31.640,45.0,910.0,-115.5,-76.5,0.0
2024-07-22 10:43:31.644,27.0,,,,0.0
2024-07-22 10:43:31.648,10.0,,,,0.0
2024-07-22 10:43:31.652,1.0,,,,0.0
2024-07-22 10:43:31.656,-5.0,,,,0.0
2024-07-22 10:43:31.660,-14.0,,,,0.0
2024-07-22 10:43:31.664,-29.0,,,,0.0
2024-07-22 10:43:31.668,-52.0,,,,0.0
2024-07-22 10:43:31.672,-74.0,,,,0.0
2024-07-22 10:43:31.676,-86.0,,,,0.0
2024-07-22 10:43:31.680,-94.0,945.0,-98.0,-76.5,0.0
2024-07-22 10:43:31.684,-103.0,,,,0.0
2024-07-22 10:43:31.688,-112.0,,,,0.0
2024-07-22 10:43:31.692,-118.0,,,,0.0
2024-07-22 10:43:31.696,-118.0,,,,0.0
2024-07-22 10:43:31.700,-120.0,,,,0.0
2024-07-22 10:43:31.704,-121.0,,,,0.0
2024-07-22 10:43:31.708,-124.0,,,,0.0
2024-07-22 10:43:31.712,-127.0,,,,0.0
2024-07-22 10:43:31.716,-129.0,,,,0.0
2024-07-22 10:43:31.720,-132.0,,,,0.0
2024-07-22 10:43:31.724,-130.0,,,,0.0
2024-07-22 10:43:31.728,-129.0,,,,0.0
2024-07-22 10:43:31.732,-126.0,,,,0.0
2024-07-22 10:43:31.736,-129.0,,,,0.0
2024-07-22 10:43:31.740,-135.0,,,,0.0
2024-07-22 10:43:31.744,-141.0,,,,0.0
2024-07-22 10:43:31.748,-141.0,,,,0.0
2024-07-22 10:43:31.752,-136.0,,,,0.0
2024-07-22 10:43:31.756,-130.0,,,,0.0
2024-07-22 10:43:31.760,-129.0,,,,0.0
2024-07-22 10:43:31.764,-127.0,,,,0.0
2024-07-22 10:43:31.768,-123.0,,,,0.0
2024-07-22 10:43:31.772,-116.0,,,,0.0
2024-07-22 10:43:31.776,-107.0,,,,0.0
2024-07-22 10:43:31.780,-83.0,,,,0.0
2024-07-22 10:43:31.784,-25.0,,,,100.0
2024-07-22 10:43:31.788,62.0,,,,0.0
2024-07-22 10:43:31.792,131.0,,,,0.0
2024-07-22 10:43:31.796,129.0,,,,0.0
2024-07-22 10:43:31.800,39.0,,,,0.0
2024-07-22 10:43:31.804,-101.0,,,,0.0
2024-07-22 10:43:31.808,-214.0,,,,0.0
2024-07-22 10:43:31.812,-243.0,,,,0.0
2024-07-22 10:43:31.816,-197.0,,,,0.0
2024-07-22 10:43:31.820,-129.0,,,,0.0
2024-07-22 10:43:31.824,-106.0,,,,0.0
2024-07-22 10:43:31.828,-147.0,,,,0.0
2024-07-22 10:43:31.832,-220.0,,,,0.0
2024-07-22 10:43:31.836,-277.0,,,,0.0
2024-07-22 10:43:31.840,-271.0,,,,0.0
2024-07-22 10:43:31.844,-208.0,,,,0.0
2024-07-22 10:43:31.848,-138.0,,,,0.0
2024-07-22 10:43:31.852,-95.0,,,,0.0
2024-07-22 10:43:31.856,-84.0,,,,0.0
2024-07-22 10:43:31.860,-92.0,,,,0.0
2024-07-22 10:43:31.864,-97.0,,,,0.0
2024-07-22 10:43:31.868,-97.0,,,,0.0
2024-07-22 10:43:31.872,-98.0,,,,0.0
2024-07-22 10:43:31.876,-104.0,,,,0.0
2024-07-22 10:43:31.880,-107.0,,,,0.0
2024-07-22 10:43:31.884,-103.0,,,,0.0
2024-07-22 10:43:31.888,-94.0,,,,0.0
2024-07-22 10:43:31.892,-84.0,,,,0.0
2024-07-22 10:43:31.896,-84.0,,,,0.0
2024-07-22 10:43:31.900,-89.0,,,,0.0
2024-07-22 10:43:31.904,-95.0,,,,0.0
2024-07-22 10:43:31.908,-94.0,,,,0.0
2024-07-22 10:43:31.912,-89.0,,,,0.0
2024-07-22 10:43:31.916,-83.0,,,,0.0
2024-07-22 10:43:31.920,-75.0,,,,0.0
2024-07-22 10:43:31.924,-69.0,,,,0.0
2024-07-22 10:43:31.928,-63.0,,,,0.0
2024-07-22 10:43:31.932,-58.0,,,,0.0
2024-07-22 10:43:31.936,-60.0,,,,0.0
2024-07-22 10:43:31.940,-63.0,,,,0.0
2024-07-22 10:43:31.944,-66.0,,,,0.0
2024-07-22 10:43:31.948,-68.0,,,,0.0
2024-07-22 10:43:31.952,-65.0,,,,0.0
2024-07-22 10:43:31.956,-62.0,,,,0.0
2024-07-22 10:43:31.960,-60.0,,,,0.0
2024-07-22 10:43:31.964,-60.0,,,,0.0
2024-07-22 10:43:31.968,-60.0,,,,0.0
2024-07-22 10:43:31.972,-58.0,,,,0.0
2024-07-22 10:43:31.976,-51.0,,,,0.0
2024-07-22 10:43:31.980,-42.0,,,,0.0
2024-07-22 10:43:31.984,-36.0,,,,0.0
2024-07-22 10:43:31.988,-31.0,,,,0.0
2024-07-22 10:43:31.992,-29.0,,,,0.0
2024-07-22 10:43:31.996,-29.0,,,,0.0
2024-07-22 10:43:32.000,-29.0,,,,0.0
2024-07-22 10:43:32.004,-26.0,,,,0.0
2024-07-22 10:43:32.008,-20.0,,,,0.0
2024-07-22 10:43:32.012,-8.0,,,,0.0
2024-07-22 10:43:32.016,7.0,,,,0.0
2024-07-22 10:43:32.020,22.0,,,,0.0
2024-07-22 10:43:32.024,35.0,,,,0.0
2024-07-22 10:43:32.028,42.0,,,,0.0
2024-07-22 10:43:32.032,45.0,,,,0.0
2024-07-22 10:43:32.036,50.0,,,,0.0
2024-07-22 10:43:32.040,56.0,,,,0.0
2024-07-22 10:43:32.044,62.0,,,,0.0
2024-07-22 10:43:32.048,65.0,,,,0.0
2024-07-22 10:43:32.052,67.0,,,,0.0
2024-07-22 10:43:32.056,67.0,,,,0.0
2024-07-22 10:43:32.060,71.0,,,,0.0
2024-07-22 10:43:32.064,77.0,,,,0.0
2024-07-22 10:43:32.068,82.0,,,,0.0
2024-07-22 10:43:32.072,85.0,,,,0.0
2024-07-22 10:43:32.076,83.0,,,,0.0
2024-07-22 10:43:32.080,83.0,,,,0.0
2024-07-22 10:43:32.084,83.0,,,,0.0
2024-07-22 10:43:32.088,83.0,,,,0.0
2024-07-22 10:43:32.092,79.0,,,,0.0
2024-07-22 10:43:32.096,71.0,,,,0.0
2024-07-22 10:43:32.100,62.0,,,,0.0
2024-07-22 10:43:32.104,51.0,,,,0.0
2024-07-22 10:43:32.108,42.0,,,,0.0
2024-07-22 10:43:32.112,35.0,,,,0.0
2024-07-22 10:43:32.116,27.0,,,,0.0
2024-07-22 10:43:32.120,18.0,,,,0.0
2024-07-22 10:43:32.124,9.0,,,,0.0
2024-07-22 10:43:32.128,1.0,,,,0.0
2024-07-22 10:43:32.132,1.0,,,,0.0
2024-07-22 10:43:32.136,4.0,,,,0.0
2024-07-22 10:43:32.140,9.0,,,,0.0
2024-07-22 10:43:32.144,4.0,,,,0.0
2024-07-22 10:43:32.148,-4.0,,,,0.0
2024-07-22 10:43:32.152,-8.0,,,,0.0
2024-07-22 10:43:32.156,-8.0,,,,0.0
2024-07-22 10:43:32.160,-5.0,,,,0.0
2024-07-22 10:43:32.164,-2.0,,,,0.0
2024-07-22 10:43:32.168,-4.0,,,,0.0
2024-07-22 10:43:32.172,-7.0,,,,0.0
2024-07-22 10:43:32.176,-17.0,,,,0.0
2024-07-22 10:43:32.180,-29.0,,,,0.0
2024-07-22 10:43:32.184,-42.0,,,,0.0
2024-07-22 10:43:32.188,-48.0,,,,0.0
2024-07-22 10:43:32.192,-43.0,,,,0.0
2024-07-22 10:43:32.196,-37.0,,,,0.0
2024-07-22 10:43:32.200,-33.0,,,,0.0
2024-07-22 10:43:32.204,-34.0,,,,0.0
2024-07-22 10:43:32.208,-39.0,,,,0.0
2024-07-22 10:43:32.212,-42.0,,,,0.0
2024-07-22 10:43:32.216,-39.0,,,,0.0
2024-07-22 10:43:32.220,-39.0,,,,0.0
2024-07-22 10:43:32.224,-48.0,,,,0.0
2024-07-22 10:43:32.228,-60.0,,,,0.0
2024-07-22 10:43:32.232,-71.0,,,,0.0
2024-07-22 10:43:32.236,-74.0,,,,0.0
2024-07-22 10:43:32.240,-71.0,,,,0.0
2024-07-22 10:43:32.244,-66.0,,,,0.0
2024-07-22 10:43:32.248,-65.0,,,,0.0
2024-07-22 10:43:32.252,-63.0,,,,0.0
2024-07-22 10:43:32.256,-63.0,,,,0.0
2024-07-22 10:43:32.260,-66.0,,,,0.0
2024-07-22 10:43:32.264,-72.0,,,,0.0
2024-07-22 10:43:32.268,-81.0,,,,0.0
2024-07-22 10:43:32.272,-84.0,,,,0.0
2024-07-22 10:43:32.276,-84.0,,,,0.0
2024-07-22 10:43:32.280,-81.0,,,,0.0
2024-07-22 10:43:32.284,-75.0,,,,0.0
2024-07-22 10:43:32.288,-69.0,,,,0.0
2024-07-22 10:43:32.292,-63.0,,,,0.0
2024-07-22 10:43:32.296,-57.0,,,,0.0
2024-07-22 10:43:32.300,-54.0,,,,0.0
2024-07-22 10:43:32.304,-49.0,,,,0.0
2024-07-22 10:43:32.308,-45.0,,,,0.0
2024-07-22 10:43:32.312,-40.0,,,,0.0
2024-07-22 10:43:32.316,-33.0,,,,0.0
2024-07-22 10:43:32.320,-23.0,,,,0.0
2024-07-22 10:43:32.324,-10.0,,,,0.0
2024-07-22 10:43:32.328,6.0,,,,0.0
2024-07-22 10:43:32.332,16.0,,,,0.0
2024-07-22 10:43:32.336,22.0,,,,0.0
2024-07-22 10:43:32.340,27.0,,,,0.0
2024-07-22 10:43:32.344,32.0,,,,0.0
2024-07-22 10:43:32.348,42.0,,,,0.0
2024-07-22 10:43:32.352,62.0,,,,0.0
2024-07-22 10:43:32.356,88.0,,,,0.0
2024-07-22 10:43:32.360,111.0,,,,0.0
2024-07-22 10:43:32.364,119.0,,,,0.0
2024-07-22 10:43:32.368,112.0,,,,0.0
2024-07-22 10:43:32.372,100.0,,,,0.0
2024-07-22 10:43:32.376,85.0,,,,0.0
2024-07-22 10:43:32.380,73.0,,,,0.0
2024-07-22 10:43:32.384,59.0,,,,0.0
2024-07-22 10:43:32.388,42.0,,,,0.0
2024-07-22 10:43:32.392,25.0,,,,0.0
2024-07-22 10:43:32.396,9.0,,,,0.0
2024-07-22 10:43:32.400,-8.0,,,,0.0
2024-07-22 10:43:32.404,-28.0,,,,0.0
2024-07-22 10:43:32.408,-49.0,,,,0.0
2024-07-22 10:43:32.412,-66.0,,,,0.0
2024-07-22 10:43:32.416,-77.0,,,,0.0
2024-07-22 10:43:32.420,-81.0,,,,0.0
2024-07-22 10:43:32.424,-81.0,,,,0.0
2024-07-22 10:43:32.428,-80.0,,,,0.0
2024-07-22 10:43:32.432,-84.0,,,,0.0
2024-07-22 10:43:32.436,-89.0,,,,0.0
2024-07-22 10:43:32.440,-95.0,,,,0.0
2024-07-22 10:43:32.444,-97.0,,,,0.0
2024-07-22 10:43:32.448,-94.0,,,,0.0
2024-07-22 10:43:32.452,-91.0,,,,0.0
2024-07-22 10:43:32.456,-91.0,,,,0.0
2024-07-22 10:43:32.460,-92.0,,,,0.0
2024-07-22 10:43:32.464,-92.0,,,,0.0
2024-07-22 10:43:32.468,-87.0,,,,0.0
2024-07-22 10:43:32.472,-81.0,,,,0.0
2024-07-22 10:43:32.476,-77.0,,,,0.0
2024-07-22 10:43:32.480,-74.0,,,,0.0
2024-07-22 10:43:32.484,-75.0,,,,0.0
2024-07-22 10:43:32.488,-75.0,,,,0.0
2024-07-22 10:43:32.492,-75.0,,,,0.0
2024-07-22 10:43:32.496,-77.0,,,,0.0
2024-07-22 10:43:32.500,-80.0,,,,0.0
2024-07-22 10:43:32.504,-81.0,,,,0.0
2024-07-22 10:43:32.508,-80.0,,,,0.0
2024-07-22 10:43:32.512,-77.0,,,,0.0
2024-07-22 10:43:32.516,-65.0,,,,0.0
2024-07-22 10:43:32.520,-43.0,,,,0.0
2024-07-22 10:43:32.524,7.0,,,,100.0
2024-07-22 10:43:32.528,85.0,,,,0.0
2024-07-22 10:43:32.532,152.0,,,,0.0
2024-07-22 10:43:32.536,166.0,,,,0.0
2024-07-22 10:43:32.540,109.0,,,,0.0
2024-07-22 10:43:32.544,18.0,,,,0.0
2024-07-22 10:43:32.548,-52.0,,,,0.0
2024-07-22 10:43:32.552,-63.0,,,,0.0
2024-07-22 10:43:32.556,-23.0,,,,0.0
2024-07-22 10:43:32.560,21.0,,,,0.0
2024-07-22 10:43:32.564,24.0,,,,0.0
2024-07-22 10:43:32.568,-33.0,,,,0.0
2024-07-22 10:43:32.572,-132.0,,,,0.0
2024-07-22 10:43:32.576,-228.0,,,,0.0
2024-07-22 10:43:32.580,-274.0,,,,0.0
2024-07-22 10:43:32.584,-245.0,,,,0.0
2024-07-22 10:43:32.588,-174.0,,,,0.0
2024-07-22 10:43:32.592,-107.0,,,,0.0
2024-07-22 10:43:32.596,-69.0,,,,0.0
2024-07-22 10:43:32.600,-63.0,,,,0.0
2024-07-22 10:43:32.604,-71.0,,,,0.0
2024-07-22 10:43:32.608,-75.0,,,,0.0
2024-07-22 10:43:32.612,-75.0,,,,0.0
2024-07-22 10:43:32.616,-72.0,,,,0.0
2024-07-22 10:43:32.620,-69.0,,,,0.0
2024-07-22 10:43:32.624,-66.0,,,,0.0
2024-07-22 10:43:32.628,-65.0,,,,0.0
2024-07-22 10:43:32.632,-65.0,,,,0.0
2024-07-22 10:43:32.636,-62.0,,,,0.0
2024-07-22 10:43:32.640,-57.0,,,,0.0
2024-07-22 10:43:32.644,-54.0,,,,0.0
2024-07-22 10:43:32.648,-49.0,,,,0.0
2024-07-22 10:43:32.652,-45.0,,,,0.0
2024-07-22 10:43:32.656,-36.0,,,,0.0
2024-07-22 10:43:32.660,-23.0,,,,0.0
2024-07-22 10:43:32.664,-11.0,,,,0.0
2024-07-22 10:43:32.668,0.0,,,,0.0
2024-07-22 10:43:32.672,6.0,,,,0.0
2024-07-22 10:43:32.676,12.0,,,,0.0
2024-07-22 10:43:32.680,21.0,,,,0.0
2024-07-22 10:43:32.684,36.0,,,,0.0
2024-07-22 10:43:32.688,53.0,,,,0.0
2024-07-22 10:43:32.692,71.0,,,,0.0
2024-07-22 10:43:32.696,90.0,,,,0.0
2024-07-22 10:43:32.700,99.0,,,,0.0
2024-07-22 10:43:32.704,97.0,,,,0.0
2024-07-22 10:43:32.708,85.0,,,,0.0
2024-07-22 10:43:32.712,71.0,,,,0.0
2024-07-22 10:43:32.716,68.0,,,,0.0
2024-07-22 10:43:32.720,80.0,,,,0.0
2024-07-22 10:43:32.724,97.0,,,,0.0
2024-07-22 10:43:32.728,109.0,,,,0.0
2024-07-22 10:43:32.732,117.0,,,,0.0
2024-07-22 10:43:32.736,126.0,,,,0.0
2024-07-22 10:43:32.740,141.0,,,,0.0
2024-07-22 10:43:32.744,155.0,,,,0.0
2024-07-22 10:43:32.748,158.0,,,,0.0
2024-07-22 10:43:32.752,151.0,,,,0.0
2024-07-22 10:43:32.756,140.0,,,,0.0
2024-07-22 10:43:32.760,134.0,,,,0.0
2024-07-22 10:43:32.764,131.0,,,,0.0
2024-07-22 10:43:32.768,125.0,,,,0.0
2024-07-22 10:43:32.772,119.0,,,,0.0
2024-07-22 10:43:32.776,114.0,,,,0.0
2024-07-22 10:43:32.780,117.0,,,,0.0
2024-07-22 10:43:32.784,123.0,,,,0.0
2024-07-22 10:43:32.788,129.0,,,,0.0
2024-07-22 10:43:32.792,131.0,,,,0.0
2024-07-22 10:43:32.796,123.0,,,,0.0
2024-07-22 10:43:32.800,115.0,,,,0.0
2024-07-22 10:43:32.804,105.0,,,,0.0
2024-07-22 10:43:32.808,100.0,,,,0.0
2024-07-22 10:43:32.812,97.0,,,,0.0
2024-07-22 10:43:32.816,97.0,,,,0.0
2024-07-22 10:43:32.820,97.0,,,,0.0
2024-07-22 10:43:32.824,96.0,,,,0.0
2024-07-22 10:43:32.828,90.0,,,,0.0
2024-07-22 10:43:32.832,80.0,,,,0.0
2024-07-22 10:43:32.836,71.0,,,,0.0
2024-07-22 10:43:32.840,59.0,,,,0.0
2024-07-22 10:43:32.844,47.0,,,,0.0
2024-07-22 10:43:32.848,33.0,,,,0.0
2024-07-22 10:43:32.852,21.0,,,,0.0
2024-07-22 10:43:32.856,12.0,,,,0.0
2024-07-22 10:43:32.860,3.0,,,,0.0
2024-07-22 10:43:32.864,-4.0,,,,0.0
2024-07-22 10:43:32.868,-13.0,,,,0.0
2024-07-22 10:43:32.872,-25.0,,,,0.0
2024-07-22 10:43:32.876,-36.0,,,,0.0
2024-07-22 10:43:32.880,-42.0,,,,0.0
2024-07-22 10:43:32.884,-46.0,,,,0.0
2024-07-22 10:43:32.888,-49.0,,,,0.0
2024-07-22 10:43:32.892,-54.0,,,,0.0
2024-07-22 10:43:32.896,-62.0,,,,0.0
2024-07-22 10:43:32.900,-71.0,,,,0.0
2024-07-22 10:43:32.904,-78.0,,,,0.0
2024-07-22 10:43:32.908,-80.0,,,,0.0
2024-07-22 10:43:32.912,-77.0,,,,0.0
2024-07-22 10:43:32.916,-72.0,,,,0.0
2024-07-22 10:43:32.920,-69.0,,,,0.0
2024-07-22 10:43:32.924,-75.0,,,,0.0
2024-07-22 10:43:32.928,-83.0,,,,0.0
2024-07-22 10:43:32.932,-91.0,,,,0.0
2024-07-22 10:43:32.936,-95.0,,,,0.0
2024-07-22 10:43:32.940,-94.0,,,,0.0
2024-07-22 10:43:32.944,-84.0,,,,0.0
2024-07-22 10:43:32.948,-71.0,,,,0.0
2024-07-22 10:43:32.952,-49.0,,,,0.0
2024-07-22 10:43:32.956,-29.0,,,,0.0
2024-07-22 10:43:32.960,-13.0,,,,0.0
2024-07-22 10:43:32.964,0.0,,,,0.0
2024-07-22 10:43:32.968,10.0,,,,0.0
2024-07-22 10:43:32.972,22.0,,,,0.0
2024-07-22 10:43:32.976,36.0,,,,0.0
2024-07-22 10:43:32.980,47.0,,,,0.0
2024-07-22 10:43:32.984,50.0,,,,0.0
2024-07-22 10:43:32.988,44.0,,,,0.0
2024-07-22 10:43:32.992,36.0,,,,0.0
2024-07-22 10:43:32.996,30.0,,,,0.0
2024-07-22 10:43:33.000,25.0,,,,0.0
2024-07-22 10:43:33.004,19.0,,,,0.0
2024-07-22 10:43:33.008,9.0,,,,0.0
2024-07-22 10:43:33.012,-4.0,,,,0.0
2024-07-22 10:43:33.016,-19.0,,,,0.0
2024-07-22 10:43:33.020,-28.0,,,,0.0
2024-07-22 10:43:33.024,-31.0,,,,0.0
2024-07-22 10:43:33.028,-33.0,,,,0.0
2024-07-22 10:43:33.032,-36.0,,,,0.0
2024-07-22 10:43:33.036,-39.0,,,,0.0
2024-07-22 10:43:33.040,-46.0,,,,0.0
2024-07-22 10:43:33.044,-51.0,,,,0.0
2024-07-22 10:43:33.048,-55.0,,,,0.0
2024-07-22 10:43:33.052,-54.0,,,,0.0
2024-07-22 10:43:33.056,-49.0,,,,0.0
2024-07-22 10:43:33.060,-43.0,,,,0.0
2024-07-22 10:43:33.064,-40.0,,,,0.0
2024-07-22 10:43:33.068,-45.0,,,,0.0
2024-07-22 10:43:33.072,-51.0,,,,0.0
2024-07-22 10:43:33.076,-54.0,,,,0.0
2024-07-22 10:43:33.080,-48.0,,,,0.0
2024-07-22 10:43:33.084,-34.0,,,,0.0
2024-07-22 10:43:33.088,-16.0,,,,0.0
2024-07-22 10:43:33.092,4.0,,,,0.0
2024-07-22 10:43:33.096,19.0,,,,0.0
2024-07-22 10:43:33.100,24.0,,,,0.0
2024-07-22 10:43:33.104,21.0,,,,0.0
2024-07-22 10:43:33.108,22.0,,,,0.0
2024-07-22 10:43:33.112,36.0,,,,0.0
2024-07-22 10:43:33.116,67.0,,,,0.0
2024-07-22 10:43:33.120,102.0,,,,0.0
2024-07-22 10:43:33.124,120.0,,,,0.0
2024-07-22 10:43:33.128,120.0,,,,0.0
2024-07-22 10:43:33.132,106.0,,,,0.0
2024-07-22 10:43:33.136,96.0,,,,0.0
2024-07-22 10:43:33.140,93.0,,,,0.0
2024-07-22 10:43:33.144,93.0,,,,0.0
2024-07-22 10:43:33.148,94.0,,,,0.0
2024-07-22 10:43:33.152,99.0,,,,0.0
2024-07-22 10:43:33.156,105.0,,,,0.0
2024-07-22 10:43:33.160,106.0,,,,0.0
2024-07-22 10:43:33.164,99.0,,,,0.0
2024-07-22 10:43:33.168,80.0,,,,0.0
2024-07-22 10:43:33.172,59.0,,,,0.0
2024-07-22 10:43:33.176,42.0,,,,0.0
2024-07-22 10:43:33.180,25.0,,,,0.0
2024-07-22 10:43:33.184,10.0,,,,0.0
2024-07-22 10:43:33.188,-2.0,,,,0.0
2024-07-22 10:43:33.192,0.0,,,,0.0
2024-07-22 10:43:33.196,6.0,,,,0.0
2024-07-22 10:43:33.200,10.0,,,,0.0
2024-07-22 10:43:33.204,3.0,,,,0.0
2024-07-22 10:43:33.208,-13.0,,,,0.0
2024-07-22 10:43:33.212,-29.0,,,,0.0
2024-07-22 10:43:33.216,-40.0,,,,0.0
2024-07-22 10:43:33.220,-48.0,,,,0.0
2024-07-22 10:43:33.224,-55.0,,,,0.0
2024-07-22 10:43:33.228,-63.0,,,,0.0
2024-07-22 10:43:33.232,-63.0,,,,0.0
2024-07-22 10:43:33.236,-63.0,,,,0.0
2024-07-22 10:43:33.240,-66.0,,,,0.0
2024-07-22 10:43:33.244,-77.0,,,,0.0
2024-07-22 10:43:33.248,-89.0,,,,0.0
2024-07-22 10:43:33.252,-94.0,,,,0.0
2024-07-22 10:43:33.256,-91.0,,,,0.0
2024-07-22 10:43:33.260,-83.0,,,,0.0
2024-07-22 10:43:33.264,-77.0,,,,0.0
2024-07-22 10:43:33.268,-71.0,,,,0.0
2024-07-22 10:43:33.272,-63.0,,,,0.0
2024-07-22 10:43:33.276,-48.0,,,,0.0
2024-07-22 10:43:33.280,-20.0,,,,0.0
2024-07-22 10:43:33.284,45.0,,,,100.0
2024-07-22 10:43:33.288,151.0,,,,0.0
2024-07-22 10:43:33.292,251.0,,,,0.0
2024-07-22 10:43:33.296,288.0,,,,0.0
2024-07-22 10:43:33.300,227.0,,,,0.0
2024-07-22 10:43:33.304,88.0,,,,0.0
2024-07-22 10:43:33.308,-57.0,,,,0.0
2024-07-22 10:43:33.312,-152.0,,,,0.0
2024-07-22 10:43:33.316,-174.0,,,,0.0
2024-07-22 10:43:33.320,-162.0,,,,0.0
2024-07-22 10:43:33.324,-159.0,,,,0.0
2024-07-22 10:43:33.328,-193.0,,,,0.0
2024-07-22 10:43:33.332,-260.0,,,,0.0
2024-07-22 10:43:33.336,-327.0,,,,0.0
2024-07-22 10:43:33.340,-347.0,,,,0.0
2024-07-22 10:43:33.344,-304.0,,,,0.0
2024-07-22 10:43:33.348,-219.0,,,,0.0
2024-07-22 10:43:33.352,-138.0,,,,0.0
2024-07-22 10:43:33.356,-89.0,,,,0.0
2024-07-22 10:43:33.360,-72.0,,,,0.0
2024-07-22 10:43:33.364,-71.0,,,,0.0
2024-07-22 10:43:33.368,-71.0,,,,0.0
2024-07-22 10:43:33.372,-74.0,,,,0.0
2024-07-22 10:43:33.376,-81.0,,,,0.0
2024-07-22 10:43:33.380,-87.0,,,,0.0
2024-07-22 10:43:33.384,-94.0,,,,0.0
2024-07-22 10:43:33.388,-95.0,,,,0.0
2024-07-22 10:43:33.392,-94.0,,,,0.0
2024-07-22 10:43:33.396,-95.0,,,,0.0
2024-07-22 10:43:33.400,-95.0,,,,0.0
2024-07-22 10:43:33.404,-92.0,,,,0.0
2024-07-22 10:43:33.408,-89.0,,,,0.0
2024-07-22 10:43:33.412,-91.0,,,,0.0
2024-07-22 10:43:33.416,-97.0,,,,0.0
2024-07-22 10:43:33.420,-107.0,,,,0.0
2024-07-22 10:43:33.424,-118.0,,,,0.0
2024-07-22 10:43:33.428,-118.0,,,,0.0
2024-07-22 10:43:33.432,-106.0,,,,0.0
2024-07-22 10:43:33.436,-83.0,,,,0.0
2024-07-22 10:43:33.440,-51.0,,,,0.0
2024-07-22 10:43:33.444,-19.0,,,,0.0
2024-07-22 10:43:33.448,13.0,,,,0.0
2024-07-22 10:43:33.452,42.0,,,,0.0
2024-07-22 10:43:33.456,71.0,,,,0.0
2024-07-22 10:43:33.460,102.0,,,,0.0
2024-07-22 10:43:33.464,129.0,,,,0.0
2024-07-22 10:43:33.468,154.0,,,,0.0
2024-07-22 10:43:33.472,169.0,,,,0.0
2024-07-22 10:43:33.476,170.0,,,,0.0
2024-07-22 10:43:33.480,160.0,,,,0.0
2024-07-22 10:43:33.484,146.0,,,,0.0
2024-07-22 10:43:33.488,134.0,,,,0.0
2024-07-22 10:43:33.492,132.0,,,,0.0
2024-07-22 10:43:33.496,138.0,,,,0.0
2024-07-22 10:43:33.500,143.0,,,,0.0
2024-07-22 10:43:33.504,144.0,,,,0.0
2024-07-22 10:43:33.508,137.0,,,,0.0
2024-07-22 10:43:33.512,125.0,,,,0.0
2024-07-22 10:43:33.516,114.0,,,,0.0
2024-07-22 10:43:33.520,105.0,,,,0.0
2024-07-22 10:43:33.524,103.0,,,,0.0
2024-07-22 10:43:33.528,111.0,,,,0.0
2024-07-22 10:43:33.532,131.0,,,,0.0
2024-07-22 10:43:33.536,157.0,,,,0.0
2024-07-22 10:43:33.540,189.0,,,,0.0
2024-07-22 10:43:33.544,215.0,,,,0.0
2024-07-22 10:43:33.548,231.0,,,,0.0
2024-07-22 10:43:33.552,241.0,,,,0.0
2024-07-22 10:43:33.556,238.0,,,,0.0
2024-07-22 10:43:33.560,228.0,,,,0.0
2024-07-22 10:43:33.564,216.0,,,,0.0
2024-07-22 10:43:33.568,202.0,,,,0.0
2024-07-22 10:43:33.572,190.0,,,,0.0
2024-07-22 10:43:33.576,183.0,,,,0.0
2024-07-22 10:43:33.580,178.0,,,,0.0
2024-07-22 10:43:33.584,175.0,,,,0.0
2024-07-22 10:43:33.588,169.0,,,,0.0
2024-07-22 10:43:33.592,157.0,,,,0.0
2024-07-22 10:43:33.596,143.0,,,,0.0
2024-07-22 10:43:33.600,135.0,,,,0.0
2024-07-22 10:43:33.604,129.0,,,,0.0
2024-07-22 10:43:33.608,131.0,,,,0.0
2024-07-22 10:43:33.612,131.0,,,,0.0
2024-07-22 10:43:33.616,135.0,,,,0.0
2024-07-22 10:43:33.620,143.0,,,,0.0
2024-07-22 10:43:33.624,154.0,,,,0.0
2024-07-22 10:43:33.628,157.0,,,,0.0
2024-07-22 10:43:33.632,155.0,,,,0.0
2024-07-22 10:43:33.636,149.0,,,,0.0
2024-07-22 10:43:33.640,141.0,,,,0.0
2024-07-22 10:43:33.644,135.0,,,,0.0
2024-07-22 10:43:33.648,128.0,,,,0.0
2024-07-22 10:43:33.652,119.0,,,,0.0
2024-07-22 10:43:33.656,108.0,,,,0.0
2024-07-22 10:43:33.660,100.0,,,,0.0
2024-07-22 10:43:33.664,94.0,,,,0.0
2024-07-22 10:43:33.668,91.0,,,,0.0
2024-07-22 10:43:33.672,85.0,,,,0.0
2024-07-22 10:43:33.676,79.0,,,,0.0
2024-07-22 10:43:33.680,71.0,,,,0.0
2024-07-22 10:43:33.684,59.0,,,,0.0
2024-07-22 10:43:33.688,45.0,,,,0.0
2024-07-22 10:43:33.692,30.0,,,,0.0
2024-07-22 10:43:33.696,16.0,,,,0.0
2024-07-22 10:43:33.700,7.0,,,,0.0
2024-07-22 10:43:33.704,0.0,,,,0.0
2024-07-22 10:43:33.708,-5.0,,,,0.0
2024-07-22 10:43:33.712,-8.0,,,,0.0
2024-07-22 10:43:33.716,-10.0,,,,0.0
2024-07-22 10:43:33.720,-10.0,,,,0.0
2024-07-22 10:43:33.724,-10.0,,,,0.0
2024-07-22 10:43:33.728,-10.0,,,,0.0
2024-07-22 10:43:33.732,-11.0,,,,0.0
2024-07-22 10:43:33.736,-16.0,,,,0.0
2024-07-22 10:43:33.740,-19.0,,,,0.0
2024-07-22 10:43:33.744,-19.0,,,,0.0
2024-07-22 10:43:33.748,-17.0,,,,0.0
2024-07-22 10:43:33.752,-16.0,,,,0.0
2024-07-22 10:43:33.756,-16.0,,,,0.0
2024-07-22 10:43:33.760,-20.0,,,,0.0
2024-07-22 10:43:33.764,-23.0,,,,0.0
2024-07-22 10:43:33.768,-25.0,,,,0.0
2024-07-22 10:43:33.772,-26.0,,,,0.0
2024-07-22 10:43:33.776,-25.0,,,,0.0
2024-07-22 10:43:33.780,-28.0,,,,0.0
2024-07-22 10:43:33.784,-33.0,,,,0.0
2024-07-22 10:43:33.788,-43.0,,,,0.0
2024-07-22 10:43:33.792,-54.0,,,,0.0
2024-07-22 10:43:33.796,-62.0,,,,0.0
2024-07-22 10:43:33.800,-63.0,,,,0.0
2024-07-22 10:43:33.804,-60.0,,,,0.0
2024-07-22 10:43:33.808,-55.0,,,,0.0
2024-07-22 10:43:33.812,-55.0,,,,0.0
2024-07-22 10:43:33.816,-58.0,,,,0.0
2024-07-22 10:43:33.820,-63.0,,,,0.0
2024-07-22 10:43:33.824,-68.0,,,,0.0
2024-07-22 10:43:33.828,-65.0,,,,0.0
2024-07-22 10:43:33.832,-55.0,,,,0.0
2024-07-22 10:43:33.836,-45.0,,,,0.0
2024-07-22 10:43:33.840,-34.0,,,,0.0
2024-07-22 10:43:33.844,-25.0,,,,0.0
2024-07-22 10:43:33.848,-16.0,,,,0.0
2024-07-22 10:43:33.852,-7.0,,,,0.0
2024-07-22 10:43:33.856,3.0,,,,0.0
2024-07-22 10:43:33.860,16.0,,,,0.0
2024-07-22 10:43:33.864,38.0,,,,0.0
2024-07-22 10:43:33.868,65.0,,,,0.0
2024-07-22 10:43:33.872,80.0,,,,0.0
2024-07-22 10:43:33.876,77.0,,,,0.0
2024-07-22 10:43:33.880,57.0,,,,0.0
2024-07-22 10:43:33.884,36.0,,,,0.0
2024-07-22 10:43:33.888,21.0,,,,0.0
2024-07-22 10:43:33.892,15.0,,,,0.0
2024-07-22 10:43:33.896,10.0,,,,0.0
2024-07-22 10:43:33.900,6.0,,,,0.0
2024-07-22 10:43:33.904,0.0,,,,0.0
2024-07-22 10:43:33.908,-7.0,,,,0.0
2024-07-22 10:43:33.912,-16.0,,,,0.0
2024-07-22 10:43:33.916,-22.0,,,,0.0
2024-07-22 10:43:33.920,-19.0,,,,0.0
2024-07-22 10:43:33.924,-13.0,,,,0.0
2024-07-22 10:43:33.928,-4.0,,,,0.0
2024-07-22 10:43:33.932,-2.0,,,,0.0
2024-07-22 10:43:33.936,-7.0,,,,0.0
2024-07-22 10:43:33.940,-13.0,,,,0.0
2024-07-22 10:43:33.944,-22.0,,,,0.0
2024-07-22 10:43:33.948,-33.0,,,,0.0
2024-07-22 10:43:33.952,-45.0,,,,0.0
2024-07-22 10:43:33.956,-57.0,,,,0.0
2024-07-22 10:43:33.960,-69.0,,,,0.0
2024-07-22 10:43:33.964,-78.0,,,,0.0
2024-07-22 10:43:33.968,-83.0,,,,0.0
2024-07-22 10:43:33.972,-87.0,,,,0.0
2024-07-22 10:43:33.976,-94.0,,,,0.0
2024-07-22 10:43:33.980,-106.0,,,,0.0
2024-07-22 10:43:33.984,-120.0,,,,0.0
2024-07-22 10:43:33.988,-130.0,,,,0.0
2024-07-22 10:43:33.992,-135.0,,,,0.0
2024-07-22 10:43:33.996,-136.0,,,,0.0
2024-07-22 10:43:34.000,-129.0,,,,0.0
2024-07-22 10:43:34.004,-115.0,,,,0.0
2024-07-22 10:43:34.008,-94.0,,,,0.0
2024-07-22 10:43:34.012,-78.0,,,,0.0
2024-07-22 10:43:34.016,-77.0,,,,0.0
2024-07-22 10:43:34.020,-89.0,,,,0.0
2024-07-22 10:43:34.024,-94.0,,,,0.0
2024-07-22 10:43:34.028,-68.0,,,,100.0
2024-07-22 10:43:34.032,13.0,,,,0.0
2024-07-22 10:43:34.036,137.0,,,,0.0
2024-07-22 10:43:34.040,251.0,,,,0.0
2024-07-22 10:43:34.044,291.0,,,,0.0
2024-07-22 10:43:34.048,233.0,,,,0.0
2024-07-22 10:43:34.052,108.0,,,,0.0
2024-07-22 10:43:34.056,-20.0,,,,0.0
2024-07-22 10:43:34.060,-97.0,,,,0.0
2024-07-22 10:43:34.064,-107.0,,,,0.0
2024-07-22 10:43:34.068,-83.0,,,,0.0
2024-07-22 10:43:34.072,-68.0,,,,0.0
2024-07-22 10:43:34.076,-91.0,,,,0.0
2024-07-22 10:43:34.080,-152.0,,,,0.0
2024-07-22 10:43:34.084,-217.0,,,,0.0
2024-07-22 10:43:34.088,-239.0,,,,0.0
2024-07-22 10:43:34.092,-200.0,,,,0.0
2024-07-22 10:43:34.096,-124.0,,,,0.0
2024-07-22 10:43:34.100,-52.0,,,,0.0
2024-07-22 10:43:34.104,-7.0,,,,0.0
2024-07-22 10:43:34.108,21.0,,,,0.0
2024-07-22 10:43:34.112,35.0,,,,0.0
2024-07-22 10:43:34.116,42.0,,,,0.0
2024-07-22 10:43:34.120,38.0,,,,0.0
2024-07-22 10:43:34.124,24.0,,,,0.0
2024-07-22 10:43:34.128,12.0,,,,0.0
2024-07-22 10:43:34.132,6.0,,,,0.0
2024-07-22 10:43:34.136,7.0,,,,0.0
2024-07-22 10:43:34.140,7.0,,,,0.0
2024-07-22 10:43:34.144,3.0,,,,0.0
2024-07-22 10:43:34.148,-7.0,,,,0.0
2024-07-22 10:43:34.152,-13.0,,,,0.0
2024-07-22 10:43:34.156,-11.0,,,,0.0
2024-07-22 10:43:34.160,-2.0,,,,0.0
2024-07-22 10:43:34.164,10.0,,,,0.0
2024-07-22 10:43:34.168,18.0,,,,0.0
2024-07-22 10:43:34.172,16.0,,,,0.0
2024-07-22 10:43:34.176,10.0,,,,0.0
2024-07-22 10:43:34.180,7.0,,,,0.0
2024-07-22 10:43:34.184,12.0,,,,0.0
2024-07-22 10:43:34.188,16.0,,,,0.0
2024-07-22 10:43:34.192,18.0,,,,0.0
2024-07-22 10:43:34.196,18.0,,,,0.0
2024-07-22 10:43:34.200,18.0,,,,0.0
2024-07-22 10:43:34.204,22.0,,,,0.0
2024-07-22 10:43:34.208,28.0,,,,0.0
2024-07-22 10:43:34.212,33.0,,,,0.0
2024-07-22 10:43:34.216,36.0,,,,0.0
2024-07-22 10:43:34.220,38.0,,,,0.0
2024-07-22 10:43:34.224,38.0,,,,0.0
2024-07-22 10:43:34.228,39.0,,,,0.0
2024-07-22 10:43:34.232,44.0,,,,0.0
2024-07-22 10:43:34.236,51.0,,,,0.0
2024-07-22 10:43:34.240,62.0,,,,0.0
2024-07-22 10:43:34.244,70.0,,,,0.0
2024-07-22 10:43:34.248,77.0,,,,0.0
2024-07-22 10:43:34.252,83.0,,,,0.0
2024-07-22 10:43:34.256,91.0,,,,0.0
2024-07-22 10:43:34.260,96.0,,,,0.0
2024-07-22 10:43:34.264,100.0,,,,0.0
2024-07-22 10:43:34.268,105.0,,,,0.0
2024-07-22 10:43:34.272,114.0,,,,0.0
2024-07-22 10:43:34.276,125.0,,,,0.0
2024-07-22 10:43:34.280,134.0,,,,0.0
2024-07-22 10:43:34.284,138.0,,,,0.0
2024-07-22 10:43:34.288,140.0,,,,0.0
2024-07-22 10:43:34.292,143.0,,,,0.0
2024-07-22 10:43:34.296,149.0,,,,0.0
2024-07-22 10:43:34.300,155.0,,,,0.0
2024-07-22 10:43:34.304,155.0,,,,0.0
2024-07-22 10:43:34.308,154.0,,,,0.0
2024-07-22 10:43:34.312,152.0,,,,0.0
2024-07-22 10:43:34.316,152.0,,,,0.0
2024-07-22 10:43:34.320,154.0,,,,0.0
2024-07-22 10:43:34.324,154.0,,,,0.0
2024-07-22 10:43:34.328,151.0,,,,0.0
2024-07-22 10:43:34.332,144.0,,,,0.0
2024-07-22 10:43:34.336,135.0,,,,0.0
2024-07-22 10:43:34.340,128.0,,,,0.0
2024-07-22 10:43:34.344,114.0,,,,0.0
2024-07-22 10:43:34.348,105.0,,,,0.0
2024-07-22 10:43:34.352,94.0,,,,0.0
2024-07-22 10:43:34.356,86.0,,,,0.0
2024-07-22 10:43:34.360,80.0,,,,0.0
2024-07-22 10:43:34.364,73.0,,,,0.0
2024-07-22 10:43:34.368,61.0,,,,0.0
2024-07-22 10:43:34.372,48.0,,,,0.0
2024-07-22 10:43:34.376,36.0,,,,0.0
2024-07-22 10:43:34.380,28.0,,,,0.0
2024-07-22 10:43:34.384,22.0,,,,0.0
2024-07-22 10:43:34.388,13.0,,,,0.0
2024-07-22 10:43:34.392,1.0,,,,0.0
2024-07-22 10:43:34.396,-10.0,,,,0.0
2024-07-22 10:43:34.400,-19.0,,,,0.0
2024-07-22 10:43:34.404,-23.0,,,,0.0
2024-07-22 10:43:34.408,-29.0,,,,0.0
2024-07-22 10:43:34.412,-37.0,,,,0.0
2024-07-22 10:43:34.416,-46.0,,,,0.0
2024-07-22 10:43:34.420,-51.0,,,,0.0
2024-07-22 10:43:34.424,-52.0,,,,0.0
2024-07-22 10:43:34.428,-54.0,,,,0.0
2024-07-22 10:43:34.432,-57.0,,,,0.0
2024-07-22 10:43:34.436,-58.0,,,,0.0
2024-07-22 10:43:34.440,-63.0,,,,0.0
2024-07-22 10:43:34.444,-68.0,,,,0.0
2024-07-22 10:43:34.448,-77.0,,,,0.0
2024-07-22 10:43:34.452,-89.0,,,,0.0
2024-07-22 10:43:34.456,-100.0,,,,0.0
2024-07-22 10:43:34.460,-100.0,,,,0.0
2024-07-22 10:43:34.464,-89.0,,,,0.0
2024-07-22 10:43:34.468,-65.0,,,,0.0
2024-07-22 10:43:34.472,-39.0,,,,0.0
2024-07-22 10:43:34.476,-22.0,,,,0.0
2024-07-22 10:43:34.480,-16.0,,,,0.0
2024-07-22 10:43:34.484,-26.0,,,,0.0
2024-07-22 10:43:34.488,-45.0,,,,0.0
2024-07-22 10:43:34.492,-63.0,,,,0.0
2024-07-22 10:43:34.496,-71.0,,,,0.0
2024-07-22 10:43:34.500,-65.0,,,,0.0
2024-07-22 10:43:34.504,-46.0,,,,0.0
2024-07-22 10:43:34.508,-34.0,,,,0.0
2024-07-22 10:43:34.512,-29.0,,,,0.0
2024-07-22 10:43:34.516,-33.0,,,,0.0
2024-07-22 10:43:34.520,-36.0,,,,0.0
2024-07-22 10:43:34.524,-29.0,,,,0.0
2024-07-22 10:43:34.528,-17.0,,,,0.0
2024-07-22 10:43:34.532,-2.0,,,,0.0
2024-07-22 10:43:34.536,12.0,,,,0.0
2024-07-22 10:43:34.540,22.0,,,,0.0
2024-07-22 10:43:34.544,32.0,,,,0.0
2024-07-22 10:43:34.548,35.0,,,,0.0
2024-07-22 10:43:34.552,39.0,,,,0.0
2024-07-22 10:43:34.556,41.0,,,,0.0
2024-07-22 10:43:34.560,41.0,,,,0.0
2024-07-22 10:43:34.564,42.0,,,,0.0
2024-07-22 10:43:34.568,44.0,,,,0.0
2024-07-22 10:43:34.572,50.0,,,,0.0
2024-07-22 10:43:34.576,57.0,,,,0.0
2024-07-22 10:43:34.580,65.0,,,,0.0
2024-07-22 10:43:34.584,77.0,,,,0.0
2024-07-22 10:43:34.588,94.0,,,,0.0
2024-07-22 10:43:34.592,114.0,,,,0.0
2024-07-22 10:43:34.596,132.0,,,,0.0
2024-07-22 10:43:34.600,148.0,,,,0.0
2024-07-22 10:43:34.604,157.0,,,,0.0
2024-07-22 10:43:34.608,169.0,,,,0.0
2024-07-22 10:43:34.612,178.0,,,,0.0
2024-07-22 10:43:34.616,178.0,,,,0.0
2024-07-22 10:43:34.620,164.0,,,,0.0
2024-07-22 10:43:34.624,138.0,,,,0.0
2024-07-22 10:43:34.628,109.0,,,,0.0
2024-07-22 10:43:34.632,85.0,,,,0.0
2024-07-22 10:43:34.636,64.0,,,,0.0
2024-07-22 10:43:34.640,48.0,,,,0.0
2024-07-22 10:43:34.644,38.0,,,,0.0
2024-07-22 10:43:34.648,38.0,,,,0.0
2024-07-22 10:43:34.652,36.0,,,,0.0
2024-07-22 10:43:34.656,25.0,,,,0.0
2024-07-22 10:43:34.660,-2.0,,,,0.0
2024-07-22 10:43:34.664,-33.0,,,,0.0
2024-07-22 10:43:34.668,-58.0,,,,0.0
2024-07-22 10:43:34.672,-69.0,,,,0.0
2024-07-22 10:43:34.676,-74.0,,,,0.0
2024-07-22 10:43:34.680,-80.0,,,,0.0
2024-07-22 10:43:34.684,-91.0,,,,0.0
2024-07-22 10:43:34.688,-103.0,,,,0.0
2024-07-22 10:43:34.692,-116.0,,,,0.0
2024-07-22 10:43:34.696,-126.0,,,,0.0
2024-07-22 10:43:34.700,-129.0,,,,0.0
2024-07-22 10:43:34.704,-127.0,,,,0.0
2024-07-22 10:43:34.708,-126.0,,,,0.0
2024-07-22 10:43:34.712,-126.0,,,,0.0
2024-07-22 10:43:34.716,-129.0,,,,0.0
2024-07-22 10:43:34.720,-132.0,,,,0.0
2024-07-22 10:43:34.724,-135.0,,,,0.0
2024-07-22 10:43:34.728,-142.0,,,,0.0
2024-07-22 10:43:34.732,-150.0,,,,0.0
2024-07-22 10:43:34.736,-153.0,,,,0.0
2024-07-22 10:43:34.740,-149.0,,,,0.0
2024-07-22 10:43:34.744,-141.0,,,,0.0
2024-07-22 10:43:34.748,-135.0,,,,0.0
2024-07-22 10:43:34.752,-138.0,,,,0.0
2024-07-22 10:43:34.756,-141.0,,,,0.0
2024-07-22 10:43:34.760,-144.0,,,,0.0
2024-07-22 10:43:34.764,-138.0,,,,0.0
2024-07-22 10:43:34.768,-129.0,,,,0.0
2024-07-22 10:43:34.772,-118.0,,,,0.0
2024-07-22 10:43:34.776,-91.0,,,,0.0
2024-07-22 10:43:34.780,-19.0,,,,100.0
2024-07-22 10:43:34.784,85.0,,,,0.0
2024-07-22 10:43:34.788,163.0,,,,0.0
2024-07-22 10:43:34.792,152.0,,,,0.0
2024-07-22 10:43:34.796,36.0,,,,0.0
2024-07-22 10:43:34.800,-136.0,,,,0.0
2024-07-22 10:43:34.804,-277.0,,,,0.0
2024-07-22 10:43:34.808,-338.0,,,,0.0
2024-07-22 10:43:34.812,-330.0,,,,0.0
2024-07-22 10:43:34.816,-300.0,,,,0.0
2024-07-22 10:43:34.820,-297.0,,,,0.0
2024-07-22 10:43:34.824,-338.0,,,,0.0
2024-07-22 10:43:34.828,-400.0,,,,0.0
2024-07-22 10:43:34.832,-441.0,,,,0.0
2024-07-22 10:43:34.836,-425.0,,,,0.0
2024-07-22 10:43:34.840,-350.0,,,,0.0
2024-07-22 10:43:34.844,-255.0,,,,0.0
2024-07-22 10:43:34.848,-182.0,,,,0.0
2024-07-22 10:43:34.852,-142.0,,,,0.0
2024-07-22 10:43:34.856,-127.0,,,,0.0
2024-07-22 10:43:34.860,-126.0,,,,0.0
2024-07-22 10:43:34.864,-121.0,,,,0.0
2024-07-22 10:43:34.868,-113.0,,,,0.0
2024-07-22 10:43:34.872,-103.0,,,,0.0
2024-07-22 10:43:34.876,-91.0,,,,0.0
2024-07-22 10:43:34.880,-80.0,,,,0.0
2024-07-22 10:43:34.884,-74.0,,,,0.0
2024-07-22 10:43:34.888,-72.0,,,,0.0
2024-07-22 10:43:34.892,-72.0,,,,0.0
2024-07-22 10:43:34.896,-71.0,,,,0.0
2024-07-22 10:43:34.900,-68.0,,,,0.0
2024-07-22 10:43:34.904,-65.0,,,,0.0
2024-07-22 10:43:34.908,-60.0,,,,0.0
2024-07-22 10:43:34.912,-60.0,,,,0.0
2024-07-22 10:43:34.916,-62.0,,,,0.0
2024-07-22 10:43:34.920,-65.0,,,,0.0
2024-07-22 10:43:34.924,-68.0,,,,0.0
2024-07-22 10:43:34.928,-65.0,,,,0.0
2024-07-22 10:43:34.932,-58.0,,,,0.0
2024-07-22 10:43:34.936,-52.0,,,,0.0
2024-07-22 10:43:34.940,-48.0,,,,0.0
2024-07-22 10:43:34.944,-48.0,,,,0.0
2024-07-22 10:43:34.948,-51.0,,,,0.0
2024-07-22 10:43:34.952,-57.0,,,,0.0
2024-07-22 10:43:34.956,-62.0,,,,0.0
2024-07-22 10:43:34.960,-63.0,,,,0.0
2024-07-22 10:43:34.964,-57.0,,,,0.0
2024-07-22 10:43:34.968,-45.0,,,,0.0
2024-07-22 10:43:34.972,-31.0,,,,0.0
2024-07-22 10:43:34.976,-20.0,,,,0.0
2024-07-22 10:43:34.980,-14.0,,,,0.0
2024-07-22 10:43:34.984,-8.0,,,,0.0
2024-07-22 10:43:34.988,-4.0,,,,0.0
2024-07-22 10:43:34.992,0.0,,,,0.0
2024-07-22 10:43:34.996,3.0,,,,0.0
2024-07-22 10:43:35.000,7.0,,,,0.0
2024-07-22 10:43:35.004,18.0,,,,0.0
2024-07-22 10:43:35.008,33.0,,,,0.0
2024-07-22 10:43:35.012,45.0,,,,0.0
2024-07-22 10:43:35.016,56.0,,,,0.0
2024-07-22 10:43:35.020,68.0,1097.5,148.0,21.0,0.0
2024-07-22 10:43:35.024,80.0,,,,0.0
2024-07-22 10:43:35.028,91.0,,,,0.0
2024-07-22 10:43:35.032,94.0,,,,0.0
2024-07-22 10:43:35.036,94.0,,,,0.0
2024-07-22 10:43:35.040,94.0,,,,0.0
2024-07-22 10:43:35.044,102.0,,,,0.0
2024-07-22 10:43:35.048,119.0,,,,0.0
2024-07-22 10:43:35.052,135.0,,,,0.0
2024-07-22 10:43:35.056,148.0,,,,0.0
2024-07-22 10:43:35.060,157.0,,,,0.0
2024-07-22 10:43:35.064,163.0,,,,0.0
2024-07-22 10:43:35.068,169.0,,,,0.0
2024-07-22 10:43:35.072,173.0,,,,0.0
2024-07-22 10:43:35.076,175.0,,,,0.0
2024-07-22 10:43:35.080,173.0,,,,0.0
2024-07-22 10:43:35.084,166.0,,,,0.0
2024-07-22 10:43:35.088,154.0,,,,0.0
2024-07-22 10:43:35.092,140.0,,,,0.0
2024-07-22 10:43:35.096,123.0,,,,0.0
2024-07-22 10:43:35.100,108.0,1070.0,46.5,27.0,0.0
2024-07-22 10:43:35.104,91.0,,,,0.0
2024-07-22 10:43:35.108,68.0,,,,0.0
2024-07-22 10:43:35.112,45.0,,,,0.0
2024-07-22 10:43:35.116,33.0,,,,0.0
2024-07-22 10:43:35.120,33.0,,,,0.0
2024-07-22 10:43:35.124,39.0,,,,0.0
2024-07-22 10:43:35.128,41.0,,,,0.0
2024-07-22 10:43:35.132,32.0,,,,0.0
2024-07-22 10:43:35.136,15.0,,,,0.0
2024-07-22 10:43:35.140,0.0,,,,0.0
2024-07-22 10:43:35.144,-13.0,,,,0.0
2024-07-22 10:43:35.148,-22.0,,,,0.0
2024-07-22 10:43:35.152,-31.0,,,,0.0
2024-07-22 10:43:35.156,-37.0,,,,0.0
2024-07-22 10:43:35.160,-43.0,,,,0.0
2024-07-22 10:43:35.164,-45.0,,,,0.0
2024-07-22 10:43:35.168,-45.0,,,,0.0
2024-07-22 10:43:35.172,-42.0,,,,0.0
2024-07-22 10:43:35.176,-39.0,,,,0.0
2024-07-22 10:43:35.180,-37.0,,,,0.0
2024-07-22 10:43:35.184,-42.0,,,,0.0
2024-07-22 10:43:35.188,-45.0,,,,0.0
2024-07-22 10:43:35.192,-48.0,,,,0.0
2024-07-22 10:43:35.196,-48.0,,,,0.0
2024-07-22 10:43:35.200,-45.0,917.5,87.5,25.0,0.0
2024-07-22 10:43:35.204,-42.0,,,,0.0
2024-07-22 10:43:35.208,-40.0,,,,0.0
2024-07-22 10:43:35.212,-40.0,,,,0.0
2024-07-22 10:43:35.216,-42.0,,,,0.0
2024-07-22 10:43:35.220,-43.0,,,,0.0
2024-07-22 10:43:35.224,-42.0,,,,0.0
2024-07-22 10:43:35.228,-39.0,,,,0.0
2024-07-22 10:43:35.232,-37.0,,,,0.0
2024-07-22 10:43:35.236,-42.0,,,,0.0
2024-07-22 10:43:35.240,-46.0,,,,0.0
2024-07-22 10:43:35.244,-49.0,,,,0.0
2024-07-22 10:43:35.248,-48.0,,,,0.0
2024-07-22 10:43:35.252,-46.0,,,,0.0
2024-07-22 10:43:35.256,-46.0,,,,0.0
2024-07-22 10:43:35.260,-51.0,,,,0.0
2024-07-22 10:43:35.264,-51.0,,,,0.0
2024-07-22 10:43:35.268,-49.0,,,,0.0
2024-07-22 10:43:35.272,-54.0,,,,0.0
2024-07-22 10:43:35.276,-63.0,,,,0.0
2024-07-22 10:43:35.280,-71.0,933.5,44.5,132.5,0.0
2024-07-22 10:43:35.284,-69.0,,,,0.0
2024-07-22 10:43:35.288,-63.0,,,,0.0
2024-07-22 10:43:35.292,-60.0,,,,0.0
2024-07-22 10:43:35.296,-63.0,,,,0.0
2024-07-22 10:43:35.300,-68.0,,,,0.0
2024-07-22 10:43:35.304,-69.0,,,,0.0
2024-07-22 10:43:35.308,-71.0,,,,0.0
2024-07-22 10:43:35.312,-77.0,,,,0.0
2024-07-22 10:43:35.316,-87.0,,,,0.0
2024-07-22 10:43:35.320,-95.0,,,,0.0
2024-07-22 10:43:35.324,-89.0,,,,0.0
2024-07-22 10:43:35.328,-72.0,,,,0.0
2024-07-22 10:43:35.332,-49.0,,,,0.0
2024-07-22 10:43:35.336,-36.0,,,,0.0
2024-07-22 10:43:35.340,-28.0,,,,0.0
2024-07-22 10:43:35.344,-25.0,,,,0.0
2024-07-22 10:43:35.348,-14.0,,,,0.0
2024-07-22 10:43:35.352,6.0,,,,0.0
2024-07-22 10:43:35.356,32.0,,,,0.0
2024-07-22 10:43:35.360,51.0,953.0,33.0,126.5,0.0
2024-07-22 10:43:35.364,53.0,,,,0.0
2024-07-22 10:43:35.368,33.0,,,,0.0
2024-07-22 10:43:35.372,4.0,,,,0.0
2024-07-22 10:43:35.376,-23.0,,,,0.0
2024-07-22 10:43:35.380,-45.0,,,,0.0
2024-07-22 10:43:35.384,-60.0,,,,0.0
2024-07-22 10:43:35.388,-63.0,,,,0.0
2024-07-22 10:43:35.392,-63.0,,,,0.0
2024-07-22 10:43:35.396,-63.0,,,,0.0
2024-07-22 10:43:35.400,-78.0,,,,0.0
2024-07-22 10:43:35.404,-106.0,,,,0.0
2024-07-22 10:43:35.408,-135.0,,,,0.0
2024-07-22 10:43:35.412,-147.0,,,,0.0
2024-07-22 10:43:35.416,-149.0,,,,0.0
2024-07-22 10:43:35.420,-141.0,,,,0.0
2024-07-22 10:43:35.424,-141.0,,,,0.0
2024-07-22 10:43:35.428,-142.0,,,,0.0
2024-07-22 10:43:35.432,-144.0,,,,0.0
2024-07-22 10:43:35.436,-141.0,,,,0.0
2024-07-22 10:43:35.440,-141.0,1048.5,11.5,183.5,0.0
2024-07-22 10:43:35.444,-142.0,,,,0.0
2024-07-22 10:43:35.448,-150.0,,,,0.0
2024-07-22 10:43:35.452,-156.0,,,,0.0
2024-07-22 10:43:35.456,-153.0,,,,0.0
2024-07-22 10:43:35.460,-147.0,,,,0.0
2024-07-22 10:43:35.464,-141.0,,,,0.0
2024-07-22 10:43:35.468,-136.0,,,,0.0
2024-07-22 10:43:35.472,-135.0,,,,0.0
2024-07-22 10:43:35.476,-132.0,,,,0.0
2024-07-22 10:43:35.480,-127.0,,,,0.0
2024-07-22 10:43:35.484,-123.0,,,,0.0
2024-07-22 10:43:35.488,-118.0,,,,0.0
2024-07-22 10:43:35.492,-109.0,,,,0.0
2024-07-22 10:43:35.496,-101.0,,,,0.0
2024-07-22 10:43:35.500,-94.0,,,,0.0
2024-07-22 10:43:35.504,-89.0,,,,0.0
2024-07-22 10:43:35.508,-83.0,,,,0.0
2024-07-22 10:43:35.512,-75.0,,,,0.0
2024-07-22 10:43:35.516,-62.0,,,,0.0
2024-07-22 10:43:35.520,-29.0,1058.5,-45.0,136.5,0.0
2024-07-22 10:43:35.524,44.0,,,,100.0
2024-07-22 10:43:35.528,152.0,,,,0.0
2024-07-22 10:43:35.532,247.0,,,,0.0
2024-07-22 10:43:35.536,267.0,,,,0.0
2024-07-22 10:43:35.540,187.0,,,,0.0
2024-07-22 10:43:35.544,42.0,,,,0.0
2024-07-22 10:43:35.548,-95.0,,,,0.0
2024-07-22 10:43:35.552,-168.0,,,,0.0
2024-07-22 10:43:35.556,-174.0,,,,0.0
2024-07-22 10:43:35.560,-158.0,,,,0.0
2024-07-22 10:43:35.564,-165.0,,,,0.0
2024-07-22 10:43:35.568,-219.0,,,,0.0
2024-07-22 10:43:35.572,-298.0,,,,0.0
2024-07-22 10:43:35.576,-353.0,,,,0.0
2024-07-22 10:43:35.580,-344.0,,,,0.0
2024-07-22 10:43:35.584,-269.0,,,,0.0
2024-07-22 10:43:35.588,-171.0,,,,0.0
2024-07-22 10:43:35.592,-98.0,,,,0.0
2024-07-22 10:43:35.596,-66.0,,,,0.0
2024-07-22 10:43:35.600,-58.0,,,,0.0
2024-07-22 10:43:35.604,-57.0,,,,0.0
2024-07-22 10:43:35.608,-51.0,,,,0.0
2024-07-22 10:43:35.612,-46.0,,,,0.0
2024-07-22 10:43:35.616,-48.0,,,,0.0
2024-07-22 10:43:35.620,-51.0,,,,0.0
2024-07-22 10:43:35.624,-52.0,,,,0.0
2024-07-22 10:43:35.628,-54.0,,,,0.0
2024-07-22 10:43:35.632,-54.0,,,,0.0
2024-07-22 10:43:35.636,-55.0,,,,0.0
2024-07-22 10:43:35.640,-55.0,,,,0.0
2024-07-22 10:43:35.644,-51.0,,,,0.0
2024-07-22 10:43:35.648,-46.0,,,,0.0
2024-07-22 10:43:35.652,-42.0,,,,0.0
2024-07-22 10:43:35.656,-42.0,,,,0.0
2024-07-22 10:43:35.660,-39.0,,,,0.0
2024-07-22 10:43:35.664,-31.0,,,,0.0
2024-07-22 10:43:35.668,-20.0,,,,0.0
2024-07-22 10:43:35.672,-10.0,,,,0.0
2024-07-22 10:43:35.676,-5.0,,,,0.0
2024-07-22 10:43:35.680,-4.0,,,,0.0
2024-07-22 10:43:35.684,-2.0,,,,0.0
2024-07-22 10:43:35.688,0.0,,,,0.0
2024-07-22 10:43:35.692,0.0,,,,0.0
2024-07-22 10:43:35.696,-5.0,,,,0.0
2024-07-22 10:43:35.700,-11.0,,,,0.0
2024-07-22 10:43:35.704,-14.0,,,,0.0
2024-07-22 10:43:35.708,-10.0,,,,0.0
2024-07-22 10:43:35.712,-2.0,,,,0.0
2024-07-22 10:43:35.716,6.0,,,,0.0
2024-07-22 10:43:35.720,10.0,,,,0.0
2024-07-22 10:43:35.724,12.0,,,,0.0
2024-07-22 10:43:35.728,10.0,,,,0.0
2024-07-22 10:43:35.732,9.0,,,,0.0
2024-07-22 10:43:35.736,10.0,,,,0.0
2024-07-22 10:43:35.740,13.0,,,,0.0
2024-07-22 10:43:35.744,21.0,,,,0.0
2024-07-22 10:43:35.748,28.0,,,,0.0
2024-07-22 10:43:35.752,35.0,,,,0.0
2024-07-22 10:43:35.756,38.0,,,,0.0
2024-07-22 10:43:35.760,42.0,,,,0.0
2024-07-22 10:43:35.764,48.0,,,,0.0
2024-07-22 10:43:35.768,54.0,,,,0.0
2024-07-22 10:43:35.772,59.0,,,,0.0
2024-07-22 10:43:35.776,67.0,,,,0.0
2024-07-22 10:43:35.780,76.0,980.0,-33.5,107.0,0.0
2024-07-22 10:43:35.784,86.0,,,,0.0
2024-07-22 10:43:35.788,100.0,,,,0.0
2024-07-22 10:43:35.792,114.0,,,,0.0
2024-07-22 10:43:35.796,122.0,,,,0.0
2024-07-22 10:43:35.800,125.0,,,,0.0
2024-07-22 10:43:35.804,126.0,,,,0.0
2024-07-22 10:43:35.808,128.0,,,,0.0
2024-07-22 10:43:35.812,129.0,,,,0.0
2024-07-22 10:43:35.816,129.0,,,,0.0
2024-07-22 10:43:35.820,128.0,,,,0.0
2024-07-22 10:43:35.824,122.0,,,,0.0
2024-07-22 10:43:35.828,112.0,,,,0.0
2024-07-22 10:43:35.832,99.0,,,,0.0
2024-07-22 10:43:35.836,80.0,,,,0.0
2024-07-22 10:43:35.840,53.0,,,,0.0
2024-07-22 10:43:35.844,30.0,,,,0.0
2024-07-22 10:43:35.848,12.0,,,,0.0
2024-07-22 10:43:35.852,3.0,,,,0.0
2024-07-22 10:43:35.856,-7.0,,,,0.0
2024-07-22 10:43:35.860,-14.0,970.5,17.5,109.0,0.0
2024-07-22 10:43:35.864,-25.0,,,,0.0
2024-07-22 10:43:35.868,-37.0,,,,0.0
2024-07-22 10:43:35.872,-49.0,,,,0.0
2024-07-22 10:43:35.876,-60.0,,,,0.0
2024-07-22 10:43:35.880,-69.0,,,,0.0
2024-07-22 10:43:35.884,-78.0,,,,0.0
2024-07-22 10:43:35.888,-87.0,,,,0.0
2024-07-22 10:43:35.892,-97.0,,,,0.0
2024-07-22 10:43:35.896,-106.0,,,,0.0
2024-07-22 10:43:35.900,-109.0,,,,0.0
2024-07-22 10:43:35.904,-106.0,,,,0.0
2024-07-22 10:43:35.908,-101.0,,,,0.0
2024-07-22 10:43:35.912,-97.0,,,,0.0
2024-07-22 10:43:35.916,-94.0,,,,0.0
2024-07-22 10:43:35.920,-89.0,,,,0.0
2024-07-22 10:43:35.924,-86.0,,,,0.0
2024-07-22 10:43:35.928,-86.0,,,,0.0
2024-07-22 10:43:35.932,-89.0,,,,0.0
2024-07-22 10:43:35.936,-94.0,,,,0.0
2024-07-22 10:43:35.940,-95.0,869.0,39.0,125.0,0.0
2024-07-22 10:43:35.944,-92.0,,,,0.0
2024-07-22 10:43:35.948,-91.0,,,,0.0
2024-07-22 10:43:35.952,-91.0,,,,0.0
2024-07-22 10:43:35.956,-94.0,,,,0.0
2024-07-22 10:43:35.960,-95.0,,,,0.0
2024-07-22 10:43:35.964,-92.0,,,,0.0
2024-07-22 10:43:35.968,-87.0,,,,0.0
2024-07-22 10:43:35.972,-84.0,,,,0.0
2024-07-22 10:43:35.976,-81.0,,,,0.0
2024-07-22 10:43:35.980,-77.0,,,,0.0
2024-07-22 10:43:35.984,-75.0,,,,0.0
2024-07-22 10:43:35.988,-74.0,,,,0.0
2024-07-22 10:43:35.992,-77.0,,,,0.0
2024-07-22 10:43:35.996,-78.0,,,,0.0
2024-07-22 10:43:36.000,-75.0,,,,0.0
2024-07-22 10:43:36.004,-69.0,,,,0.0
2024-07-22 10:43:36.008,-66.0,,,,0.0
2024-07-22 10:43:36.012,-62.0,,,,0.0
2024-07-22 10:43:36.016,-62.0,,,,0.0
2024-07-22 10:43:36.020,-58.0,,,,0.0
2024-07-22 10:43:36.024,-58.0,,,,0.0
2024-07-22 10:43:36.028,-60.0,,,,0.0
2024-07-22 10:43:36.032,-66.0,,,,0.0
2024-07-22 10:43:36.036,-66.0,,,,0.0
2024-07-22 10:43:36.040,-62.0,,,,0.0
2024-07-22 10:43:36.044,-57.0,,,,0.0
2024-07-22 10:43:36.048,-54.0,,,,0.0
2024-07-22 10:43:36.052,-54.0,,,,0.0
2024-07-22 10:43:36.056,-51.0,,,,0.0
2024-07-22 10:43:36.060,-42.0,,,,0.0
2024-07-22 10:43:36.064,-29.0,,,,0.0
2024-07-22 10:43:36.068,-13.0,,,,0.0
2024-07-22 10:43:36.072,4.0,,,,0.0
2024-07-22 10:43:36.076,19.0,,,,0.0
2024-07-22 10:43:36.080,33.0,,,,0.0
2024-07-22 10:43:36.084,44.0,,,,0.0
2024-07-22 10:43:36.088,48.0,,,,0.0
2024-07-22 10:43:36.092,54.0,,,,0.0
2024-07-22 10:43:36.096,67.0,,,,0.0
2024-07-22 10:43:36.100,88.0,,,,0.0
2024-07-22 10:43:36.104,108.0,,,,0.0
2024-07-22 10:43:36.108,112.0,,,,0.0
2024-07-22 10:43:36.112,96.0,,,,0.0
2024-07-22 10:43:36.116,68.0,,,,0.0
2024-07-22 10:43:36.120,44.0,,,,0.0
2024-07-22 10:43:36.124,25.0,,,,0.0
2024-07-22 10:43:36.128,15.0,,,,0.0
2024-07-22 10:43:36.132,9.0,,,,0.0
2024-07-22 10:43:36.136,3.0,,,,0.0
2024-07-22 10:43:36.140,-5.0,,,,0.0
2024-07-22 10:43:36.144,-22.0,,,,0.0
2024-07-22 10:43:36.148,-42.0,,,,0.0
2024-07-22 10:43:36.152,-65.0,,,,0.0
2024-07-22 10:43:36.156,-80.0,,,,0.0
2024-07-22 10:43:36.160,-86.0,,,,0.0
2024-07-22 10:43:36.164,-87.0,,,,0.0
2024-07-22 10:43:36.168,-89.0,,,,0.0
2024-07-22 10:43:36.172,-91.0,,,,0.0
2024-07-22 10:43:36.176,-92.0,,,,0.0
2024-07-22 10:43:36.180,-97.0,,,,0.0
2024-07-22 10:43:36.184,-103.0,,,,0.0
2024-07-22 10:43:36.188,-107.0,,,,0.0
2024-07-22 10:43:36.192,-110.0,,,,0.0
2024-07-22 10:43:36.196,-115.0,,,,0.0
2024-07-22 10:43:36.200,-120.0,,,,0.0
2024-07-22 10:43:36.204,-121.0,,,,0.0
2024-07-22 10:43:36.208,-126.0,,,,0.0
2024-07-22 10:43:36.212,-135.0,,,,0.0
2024-07-22 10:43:36.216,-150.0,,,,0.0
2024-07-22 10:43:36.220,-161.0,,,,0.0
2024-07-22 10:43:36.224,-164.0,,,,0.0
2024-07-22 10:43:36.228,-159.0,,,,0.0
2024-07-22 10:43:36.232,-152.0,,,,0.0
2024-07-22 10:43:36.236,-150.0,,,,0.0
2024-07-22 10:43:36.240,-159.0,,,,0.0
2024-07-22 10:43:36.244,-170.0,,,,0.0
2024-07-22 10:43:36.248,-176.0,,,,0.0
2024-07-22 10:43:36.252,-176.0,,,,0.0
2024-07-22 10:43:36.256,-165.0,,,,0.0
2024-07-22 10:43:36.260,-147.0,,,,0.0
2024-07-22 10:43:36.264,-106.0,,,,100.0
2024-07-22 10:43:36.268,-23.0,,,,0.0
2024-07-22 10:43:36.272,93.0,,,,0.0
2024-07-22 10:43:36.276,196.0,,,,0.0
2024-07-22 10:43:36.280,231.0,929.5,105.0,125.0,0.0
2024-07-22 10:43:36.284,161.0,,,,0.0
2024-07-22 10:43:36.288,10.0,,,,0.0
2024-07-22 10:43:36.292,-161.0,,,,0.0
2024-07-22 10:43:36.296,-283.0,,,,0.0
2024-07-22 10:43:36.300,-335.0,,,,0.0
2024-07-22 10:43:36.304,-336.0,,,,0.0
2024-07-22 10:43:36.308,-336.0,,,,0.0
2024-07-22 10:43:36.312,-365.0,,,,0.0
2024-07-22 10:43:36.316,-416.0,,,,0.0
2024-07-22 10:43:36.320,-448.0,,,,0.0
2024-07-22 10:43:36.324,-423.0,,,,0.0
2024-07-22 10:43:36.328,-342.0,,,,0.0
2024-07-22 10:43:36.332,-245.0,,,,0.0
2024-07-22 10:43:36.336,-171.0,,,,0.0
2024-07-22 10:43:36.340,-135.0,,,,0.0
2024-07-22 10:43:36.344,-124.0,,,,0.0
2024-07-22 10:43:36.348,-120.0,,,,0.0
2024-07-22 10:43:36.352,-113.0,,,,0.0
2024-07-22 10:43:36.356,-107.0,,,,0.0
2024-07-22 10:43:36.360,-101.0,919.5,29.0,91.5,0.0
2024-07-22 10:43:36.364,-98.0,,,,0.0
2024-07-22 10:43:36.368,-95.0,,,,0.0
2024-07-22 10:43:36.372,-92.0,,,,0.0
2024-07-22 10:43:36.376,-89.0,,,,0.0
2024-07-22 10:43:36.380,-86.0,,,,0.0
2024-07-22 10:43:36.384,-81.0,,,,0.0
2024-07-22 10:43:36.388,-78.0,,,,0.0
2024-07-22 10:43:36.392,-72.0,,,,0.0
2024-07-22 10:43:36.396,-62.0,,,,0.0
2024-07-22 10:43:36.400,-48.0,,,,0.0
2024-07-22 10:43:36.404,-33.0,,,,0.0
2024-07-22 10:43:36.408,-26.0,,,,0.0
2024-07-22 10:43:36.412,-25.0,,,,0.0
2024-07-22 10:43:36.416,-23.0,,,,0.0
2024-07-22 10:43:36.420,-17.0,,,,0.0
2024-07-22 10:43:36.424,-10.0,,,,0.0
2024-07-22 10:43:36.428,-2.0,,,,0.0
2024-07-22 10:43:36.432,1.0,,,,0.0
2024-07-22 10:43:36.436,4.0,,,,0.0
2024-07-22 10:43:36.440,6.0,,,,0.0
2024-07-22 10:43:36.444,9.0,,,,0.0
2024-07-22 10:43:36.448,13.0,,,,0.0
2024-07-22 10:43:36.452,16.0,,,,0.0
2024-07-22 10:43:36.456,19.0,,,,0.0
2024-07-22 10:43:36.460,24.0,,,,0.0
2024-07-22 10:43:36.464,32.0,,,,0.0
2024-07-22 10:43:36.468,41.0,,,,0.0
2024-07-22 10:43:36.472,50.0,,,,0.0
2024-07-22 10:43:36.476,56.0,,,,0.0
2024-07-22 10:43:36.480,61.0,,,,0.0
2024-07-22 10:43:36.484,68.0,,,,0.0
2024-07-22 10:43:36.488,80.0,,,,0.0
2024-07-22 10:43:36.492,97.0,,,,0.0
2024-07-22 10:43:36.496,115.0,,,,0.0
2024-07-22 10:43:36.500,132.0,,,,0.0
2024-07-22 10:43:36.504,146.0,,,,0.0
2024-07-22 10:43:36.508,158.0,,,,0.0
2024-07-22 10:43:36.512,167.0,,,,0.0
2024-07-22 10:43:36.516,172.0,,,,0.0
2024-07-22 10:43:36.520,177.0,,,,0.0
2024-07-22 10:43:36.524,186.0,,,,0.0
2024-07-22 10:43:36.528,193.0,,,,0.0
2024-07-22 10:43:36.532,202.0,,,,0.0
2024-07-22 10:43:36.536,210.0,,,,0.0
2024-07-22 10:43:36.540,215.0,,,,0.0
2024-07-22 10:43:36.544,215.0,,,,0.0
2024-07-22 10:43:36.548,215.0,,,,0.0
2024-07-22 10:43:36.552,212.0,,,,0.0
2024-07-22 10:43:36.556,209.0,,,,0.0
2024-07-22 10:43:36.560,204.0,,,,0.0
2024-07-22 10:43:36.564,199.0,,,,0.0
2024-07-22 10:43:36.568,193.0,,,,0.0
2024-07-22 10:43:36.572,184.0,,,,0.0
2024-07-22 10:43:36.576,166.0,,,,0.0
2024-07-22 10:43:36.580,148.0,,,,0.0
2024-07-22 10:43:36.584,125.0,,,,0.0
2024-07-22 10:43:36.588,105.0,,,,0.0
2024-07-22 10:43:36.592,86.0,,,,0.0
2024-07-22 10:43:36.596,71.0,,,,0.0
2024-07-22 10:43:36.600,51.0,,,,0.0
2024-07-22 10:43:36.604,28.0,,,,0.0
2024-07-22 10:43:36.608,3.0,,,,0.0
2024-07-22 10:43:36.612,-19.0,,,,0.0
2024-07-22 10:43:36.616,-34.0,,,,0.0
2024-07-22 10:43:36.620,-45.0,,,,0.0
2024-07-22 10:43:36.624,-57.0,,,,0.0
2024-07-22 10:43:36.628,-69.0,,,,0.0
2024-07-22 10:43:36.632,-81.0,,,,0.0
2024-07-22 10:43:36.636,-91.0,,,,0.0
2024-07-22 10:43:36.640,-97.0,,,,0.0
2024-07-22 10:43:36.644,-103.0,,,,0.0
2024-07-22 10:43:36.648,-107.0,,,,0.0
2024-07-22 10:43:36.652,-110.0,,,,0.0
2024-07-22 10:43:36.656,-113.0,,,,0.0
2024-07-22 10:43:36.660,-112.0,,,,0.0
2024-07-22 10:43:36.664,-109.0,,,,0.0
2024-07-22 10:43:36.668,-106.0,,,,0.0
2024-07-22 10:43:36.672,-107.0,,,,0.0
2024-07-22 10:43:36.676,-109.0,,,,0.0
2024-07-22 10:43:36.680,-113.0,,,,0.0
2024-07-22 10:43:36.684,-113.0,,,,0.0
2024-07-22 10:43:36.688,-112.0,,,,0.0
2024-07-22 10:43:36.692,-107.0,,,,0.0
2024-07-22 10:43:36.696,-107.0,,,,0.0
2024-07-22 10:43:36.700,-106.0,,,,0.0
2024-07-22 10:43:36.704,-107.0,,,,0.0
2024-07-22 10:43:36.708,-107.0,,,,0.0
2024-07-22 10:43:36.712,-106.0,,,,0.0
2024-07-22 10:43:36.716,-104.0,,,,0.0
2024-07-22 10:43:36.720,-104.0,,,,0.0
2024-07-22 10:43:36.724,-106.0,,,,0.0
2024-07-22 10:43:36.728,-109.0,,,,0.0
2024-07-22 10:43:36.732,-110.0,,,,0.0
2024-07-22 10:43:36.736,-109.0,,,,0.0
2024-07-22 10:43:36.740,-103.0,,,,0.0
2024-07-22 10:43:36.744,-94.0,,,,0.0
2024-07-22 10:43:36.748,-84.0,,,,0.0
2024-07-22 10:43:36.752,-78.0,,,,0.0
2024-07-22 10:43:36.756,-78.0,,,,0.0
2024-07-22 10:43:36.760,-83.0,,,,0.0
2024-07-22 10:43:36.764,-91.0,,,,0.0
2024-07-22 10:43:36.768,-92.0,,,,0.0
2024-07-22 10:43:36.772,-89.0,,,,0.0
2024-07-22 10:43:36.776,-80.0,,,,0.0
2024-07-22 10:43:36.780,-72.0,970.5,95.5,83.5,0.0
2024-07-22 10:43:36.784,-69.0,,,,0.0
2024-07-22 10:43:36.788,-69.0,,,,0.0
2024-07-22 10:43:36.792,-71.0,,,,0.0
2024-07-22 10:43:36.796,-78.0,,,,0.0
2024-07-22 10:43:36.800,-83.0,,,,0.0
2024-07-22 10:43:36.804,-80.0,,,,0.0
2024-07-22 10:43:36.808,-66.0,,,,0.0
2024-07-22 10:43:36.812,-43.0,,,,0.0
2024-07-22 10:43:36.816,-19.0,,,,0.0
2024-07-22 10:43:36.820,-5.0,,,,0.0
2024-07-22 10:43:36.824,3.0,,,,0.0
2024-07-22 10:43:36.828,10.0,,,,0.0
2024-07-22 10:43:36.832,22.0,,,,0.0
2024-07-22 10:43:36.836,36.0,,,,0.0
2024-07-22 10:43:36.840,50.0,,,,0.0
2024-07-22 10:43:36.844,67.0,,,,0.0
2024-07-22 10:43:36.848,82.0,,,,0.0
2024-07-22 10:43:36.852,86.0,,,,0.0
2024-07-22 10:43:36.856,73.0,,,,0.0
2024-07-22 10:43:36.860,50.0,,,,0.0
2024-07-22 10:43:36.864,27.0,,,,0.0
2024-07-22 10:43:36.868,13.0,,,,0.0
2024-07-22 10:43:36.872,7.0,,,,0.0
2024-07-22 10:43:36.876,3.0,,,,0.0
2024-07-22 10:43:36.880,-4.0,,,,0.0
2024-07-22 10:43:36.884,-14.0,,,,0.0
2024-07-22 10:43:36.888,-26.0,,,,0.0
2024-07-22 10:43:36.892,-45.0,,,,0.0
2024-07-22 10:43:36.896,-65.0,,,,0.0
2024-07-22 10:43:36.900,-81.0,,,,0.0
2024-07-22 10:43:36.904,-89.0,,,,0.0
2024-07-22 10:43:36.908,-97.0,,,,0.0
2024-07-22 10:43:36.912,-107.0,,,,0.0
2024-07-22 10:43:36.916,-120.0,,,,0.0
2024-07-22 10:43:36.920,-126.0,,,,0.0
2024-07-22 10:43:36.924,-124.0,,,,0.0
2024-07-22 10:43:36.928,-121.0,,,,0.0
2024-07-22 10:43:36.932,-121.0,,,,0.0
2024-07-22 10:43:36.936,-127.0,,,,0.0
2024-07-22 10:43:36.940,-132.0,,,,0.0
2024-07-22 10:43:36.944,-130.0,,,,0.0
2024-07-22 10:43:36.948,-127.0,,,,0.0
2024-07-22 10:43:36.952,-127.0,,,,0.0
2024-07-22 10:43:36.956,-135.0,,,,0.0
2024-07-22 10:43:36.960,-142.0,,,,0.0
2024-07-22 10:43:36.964,-145.0,,,,0.0
2024-07-22 10:43:36.968,-142.0,,,,0.0
2024-07-22 10:43:36.972,-139.0,,,,0.0
2024-07-22 10:43:36.976,-136.0,,,,0.0
2024-07-22 10:43:36.980,-135.0,,,,0.0
2024-07-22 10:43:36.984,-136.0,,,,0.0
2024-07-22 10:43:36.988,-144.0,,,,0.0
2024-07-22 10:43:36.992,-152.0,,,,0.0
2024-07-22 10:43:36.996,-152.0,,,,0.0
2024-07-22 10:43:37.000,-138.0,,,,0.0
2024-07-22 10:43:37.004,-116.0,,,,0.0
2024-07-22 10:43:37.008,-95.0,,,,0.0
2024-07-22 10:43:37.012,-49.0,,,,100.0
2024-07-22 10:43:37.016,42.0,,,,0.0
2024-07-22 10:43:37.020,158.0,,,,0.0
2024-07-22 10:43:37.024,231.0,,,,0.0
2024-07-22 10:43:37.028,190.0,,,,0.0
2024-07-22 10:43:37.032,28.0,,,,0.0
2024-07-22 10:43:37.036,-185.0,,,,0.0
2024-07-22 10:43:37.040,-355.0,,,,0.0
2024-07-22 10:43:37.044,-425.0,,,,0.0
2024-07-22 10:43:37.048,-409.0,,,,0.0
2024-07-22 10:43:37.052,-370.0,,,,0.0
2024-07-22 10:43:37.056,-358.0,,,,0.0
2024-07-22 10:43:37.060,-385.0,,,,0.0
2024-07-22 10:43:37.064,-419.0,,,,0.0
2024-07-22 10:43:37.068,-414.0,,,,0.0
2024-07-22 10:43:37.072,-347.0,,,,0.0
2024-07-22 10:43:37.076,-249.0,,,,0.0
2024-07-22 10:43:37.080,-162.0,,,,0.0
2024-07-22 10:43:37.084,-112.0,,,,0.0
2024-07-22 10:43:37.088,-97.0,,,,0.0
2024-07-22 10:43:37.092,-94.0,,,,0.0
2024-07-22 10:43:37.096,-92.0,,,,0.0
2024-07-22 10:43:37.100,-89.0,,,,0.0
2024-07-22 10:43:37.104,-86.0,,,,0.0
2024-07-22 10:43:37.108,-84.0,,,,0.0
2024-07-22 10:43:37.112,-84.0,,,,0.0
2024-07-22 10:43:37.116,-86.0,,,,0.0
2024-07-22 10:43:37.120,-87.0,,,,0.0
2024-07-22 10:43:37.124,-86.0,,,,0.0
2024-07-22 10:43:37.128,-80.0,,,,0.0
2024-07-22 10:43:37.132,-71.0,,,,0.0
2024-07-22 10:43:37.136,-68.0,,,,0.0
2024-07-22 10:43:37.140,-75.0,,,,0.0
2024-07-22 10:43:37.144,-87.0,,,,0.0
2024-07-22 10:43:37.148,-94.0,,,,0.0
2024-07-22 10:43:37.152,-89.0,,,,0.0
2024-07-22 10:43:37.156,-77.0,,,,0.0
2024-07-22 10:43:37.160,-60.0,,,,0.0
2024-07-22 10:43:37.164,-45.0,,,,0.0
2024-07-22 10:43:37.168,-34.0,,,,0.0
2024-07-22 10:43:37.172,-26.0,,,,0.0
2024-07-22 10:43:37.176,-23.0,,,,0.0
2024-07-22 10:43:37.180,-20.0,,,,0.0
2024-07-22 10:43:37.184,-13.0,,,,0.0
2024-07-22 10:43:37.188,0.0,,,,0.0
2024-07-22 10:43:37.192,12.0,,,,0.0
2024-07-22 10:43:37.196,12.0,,,,0.0
2024-07-22 10:43:37.200,4.0,,,,0.0
2024-07-22 10:43:37.204,1.0,,,,0.0
2024-07-22 10:43:37.208,10.0,,,,0.0
2024-07-22 10:43:37.212,28.0,,,,0.0
2024-07-22 10:43:37.216,44.0,,,,0.0
2024-07-22 10:43:37.220,50.0,,,,0.0
2024-07-22 10:43:37.224,48.0,,,,0.0
2024-07-22 10:43:37.228,45.0,,,,0.0
2024-07-22 10:43:37.232,50.0,,,,0.0
2024-07-22 10:43:37.236,61.0,,,,0.0
2024-07-22 10:43:37.240,77.0,,,,0.0
2024-07-22 10:43:37.244,94.0,,,,0.0
2024-07-22 10:43:37.248,108.0,,,,0.0
2024-07-22 10:43:37.252,119.0,,,,0.0
2024-07-22 10:43:37.256,125.0,,,,0.0
2024-07-22 10:43:37.260,131.0,,,,0.0
2024-07-22 10:43:37.264,141.0,,,,0.0
2024-07-22 10:43:37.268,155.0,,,,0.0
2024-07-22 10:43:37.272,170.0,,,,0.0
2024-07-22 10:43:37.276,175.0,,,,0.0
2024-07-22 10:43:37.280,175.0,,,,0.0
2024-07-22 10:43:37.284,173.0,,,,0.0
2024-07-22 10:43:37.288,178.0,,,,0.0
2024-07-22 10:43:37.292,186.0,,,,0.0
2024-07-22 10:43:37.296,195.0,,,,0.0
2024-07-22 10:43:37.300,202.0,,,,0.0
2024-07-22 10:43:37.304,202.0,,,,0.0
2024-07-22 10:43:37.308,198.0,,,,0.0
2024-07-22 10:43:37.312,184.0,,,,0.0
2024-07-22 10:43:37.316,167.0,,,,0.0
2024-07-22 10:43:37.320,152.0,,,,0.0
2024-07-22 10:43:37.324,140.0,,,,0.0
2024-07-22 10:43:37.328,132.0,,,,0.0
2024-07-22 10:43:37.332,123.0,,,,0.0
2024-07-22 10:43:37.336,109.0,,,,0.0
2024-07-22 10:43:37.340,93.0,,,,0.0
2024-07-22 10:43:37.344,71.0,,,,0.0
2024-07-22 10:43:37.348,50.0,,,,0.0
2024-07-22 10:43:37.352,32.0,,,,0.0
2024-07-22 10:43:37.356,16.0,,,,0.0
2024-07-22 10:43:37.360,9.0,,,,0.0
2024-07-22 10:43:37.364,3.0,,,,0.0
2024-07-22 10:43:37.368,-2.0,,,,0.0
2024-07-22 10:43:37.372,-8.0,,,,0.0
2024-07-22 10:43:37.376,-16.0,,,,0.0
2024-07-22 10:43:37.380,-20.0,,,,0.0
2024-07-22 10:43:37.384,-28.0,,,,0.0
2024-07-22 10:43:37.388,-36.0,,,,0.0
2024-07-22 10:43:37.392,-43.0,,,,0.0
2024-07-22 10:43:37.396,-45.0,,,,0.0
2024-07-22 10:43:37.400,-42.0,,,,0.0
2024-07-22 10:43:37.404,-39.0,,,,0.0
2024-07-22 10:43:37.408,-37.0,,,,0.0
2024-07-22 10:43:37.412,-39.0,,,,0.0
2024-07-22 10:43:37.416,-39.0,,,,0.0
2024-07-22 10:43:37.420,-39.0,,,,0.0
2024-07-22 10:43:37.424,-40.0,,,,0.0
2024-07-22 10:43:37.428,-43.0,,,,0.0
2024-07-22 10:43:37.432,-45.0,,,,0.0
2024-07-22 10:43:37.436,-42.0,,,,0.0
2024-07-22 10:43:37.440,-39.0,,,,0.0
2024-07-22 10:43:37.444,-37.0,,,,0.0
2024-07-22 10:43:37.448,-36.0,,,,0.0
2024-07-22 10:43:37.452,-37.0,,,,0.0
2024-07-22 10:43:37.456,-36.0,,,,0.0
2024-07-22 10:43:37.460,-36.0,,,,0.0
2024-07-22 10:43:37.464,-34.0,,,,0.0
2024-07-22 10:43:37.468,-31.0,,,,0.0
2024-07-22 10:43:37.472,-28.0,,,,0.0
2024-07-22 10:43:37.476,-23.0,,,,0.0
2024-07-22 10:43:37.480,-14.0,,,,0.0
2024-07-22 10:43:37.484,-10.0,,,,0.0
2024-07-22 10:43:37.488,-8.0,,,,0.0
2024-07-22 10:43:37.492,-14.0,,,,0.0
2024-07-22 10:43:37.496,-22.0,,,,0.0
2024-07-22 10:43:37.500,-29.0,,,,0.0
2024-07-22 10:43:37.504,-34.0,,,,0.0
2024-07-22 10:43:37.508,-37.0,,,,0.0
2024-07-22 10:43:37.512,-37.0,,,,0.0
2024-07-22 10:43:37.516,-37.0,,,,0.0
2024-07-22 10:43:37.520,-39.0,,,,0.0
2024-07-22 10:43:37.524,-40.0,,,,0.0
2024-07-22 10:43:37.528,-42.0,,,,0.0
2024-07-22 10:43:37.532,-48.0,,,,0.0
2024-07-22 10:43:37.536,-54.0,,,,0.0
2024-07-22 10:43:37.540,-58.0,,,,0.0
2024-07-22 10:43:37.544,-58.0,,,,0.0
2024-07-22 10:43:37.548,-52.0,,,,0.0
2024-07-22 10:43:37.552,-43.0,,,,0.0
2024-07-22 10:43:37.556,-36.0,,,,0.0
2024-07-22 10:43:37.560,-33.0,,,,0.0
2024-07-22 10:43:37.564,-33.0,,,,0.0
2024-07-22 10:43:37.568,-33.0,,,,0.0
2024-07-22 10:43:37.572,-33.0,,,,0.0
2024-07-22 10:43:37.576,-29.0,,,,0.0
2024-07-22 10:43:37.580,-20.0,,,,0.0
2024-07-22 10:43:37.584,0.0,,,,0.0
2024-07-22 10:43:37.588,30.0,,,,0.0
2024-07-22 10:43:37.592,54.0,,,,0.0
2024-07-22 10:43:37.596,61.0,,,,0.0
2024-07-22 10:43:37.600,50.0,,,,0.0
2024-07-22 10:43:37.604,32.0,,,,0.0
2024-07-22 10:43:37.608,15.0,,,,0.0
2024-07-22 10:43:37.612,1.0,,,,0.0
2024-07-22 10:43:37.616,-11.0,,,,0.0
2024-07-22 10:43:37.620,-16.0,,,,0.0
2024-07-22 10:43:37.624,-17.0,,,,0.0
2024-07-22 10:43:37.628,-19.0,,,,0.0
2024-07-22 10:43:37.632,-29.0,,,,0.0
2024-07-22 10:43:37.636,-46.0,,,,0.0
2024-07-22 10:43:37.640,-68.0,,,,0.0
2024-07-22 10:43:37.644,-83.0,,,,0.0
2024-07-22 10:43:37.648,-94.0,,,,0.0
2024-07-22 10:43:37.652,-103.0,,,,0.0
2024-07-22 10:43:37.656,-112.0,,,,0.0
2024-07-22 10:43:37.660,-115.0,,,,0.0
2024-07-22 10:43:37.664,-115.0,,,,0.0
2024-07-22 10:43:37.668,-115.0,,,,0.0
2024-07-22 10:43:37.672,-121.0,,,,0.0
2024-07-22 10:43:37.676,-132.0,,,,0.0
2024-07-22 10:43:37.680,-138.0,,,,0.0
2024-07-22 10:43:37.684,-135.0,,,,0.0
2024-07-22 10:43:37.688,-121.0,,,,0.0
2024-07-22 10:43:37.692,-109.0,,,,0.0
2024-07-22 10:43:37.696,-107.0,,,,0.0
2024-07-22 10:43:37.700,-118.0,,,,0.0
2024-07-22 10:43:37.704,-130.0,,,,0.0
2024-07-22 10:43:37.708,-138.0,,,,0.0
2024-07-22 10:43:37.712,-135.0,,,,0.0
2024-07-22 10:43:37.716,-129.0,,,,0.0
2024-07-22 10:43:37.720,-121.0,,,,0.0
2024-07-22 10:43:37.724,-118.0,,,,0.0
2024-07-22 10:43:37.728,-120.0,,,,0.0
2024-07-22 10:43:37.732,-123.0,,,,0.0
2024-07-22 10:43:37.736,-121.0,,,,0.0
2024-07-22 10:43:37.740,-112.0,,,,0.0
2024-07-22 10:43:37.744,-97.0,,,,0.0
2024-07-22 10:43:37.748,-81.0,,,,0.0
2024-07-22 10:43:37.752,-45.0,,,,100.0
2024-07-22 10:43:37.756,33.0,,,,0.0
2024-07-22 10:43:37.760,143.0,,,,0.0
2024-07-22 10:43:37.764,225.0,,,,0.0
2024-07-22 10:43:37.768,216.0,,,,0.0
2024-07-22 10:43:37.772,96.0,,,,0.0
2024-07-22 10:43:37.776,-81.0,,,,0.0
2024-07-22 10:43:37.780,-228.0,,,,0.0
2024-07-22 10:43:37.784,-293.0,,,,0.0
2024-07-22 10:43:37.788,-287.0,,,,0.0
2024-07-22 10:43:37.792,-263.0,,,,0.0
2024-07-22 10:43:37.796,-260.0,,,,0.0
2024-07-22 10:43:37.800,-292.0,,,,0.0
2024-07-22 10:43:37.804,-336.0,,,,0.0
2024-07-22 10:43:37.808,-351.0,,,,0.0
2024-07-22 10:43:37.812,-310.0,,,,0.0
2024-07-22 10:43:37.816,-228.0,,,,0.0
2024-07-22 10:43:37.820,-144.0,,,,0.0
2024-07-22 10:43:37.824,-92.0,,,,0.0
2024-07-22 10:43:37.828,-75.0,,,,0.0
2024-07-22 10:43:37.832,-77.0,,,,0.0
2024-07-22 10:43:37.836,-80.0,,,,0.0
2024-07-22 10:43:37.840,-81.0,,,,0.0
2024-07-22 10:43:37.844,-77.0,,,,0.0
2024-07-22 10:43:37.848,-71.0,,,,0.0
2024-07-22 10:43:37.852,-63.0,,,,0.0
2024-07-22 10:43:37.856,-58.0,,,,0.0
2024-07-22 10:43:37.860,-63.0,,,,0.0
2024-07-22 10:43:37.864,-74.0,,,,0.0
2024-07-22 10:43:37.868,-81.0,,,,0.0
2024-07-22 10:43:37.872,-78.0,,,,0.0
2024-07-22 10:43:37.876,-71.0,,,,0.0
2024-07-22 10:43:37.880,-63.0,,,,0.0
2024-07-22 10:43:37.884,-57.0,,,,0.0
2024-07-22 10:43:37.888,-58.0,,,,0.0
2024-07-22 10:43:37.892,-62.0,,,,0.0
2024-07-22 10:43:37.896,-60.0,,,,0.0
2024-07-22 10:43:37.900,-55.0,,,,0.0
2024-07-22 10:43:37.904,-46.0,,,,0.0
2024-07-22 10:43:37.908,-37.0,,,,0.0
2024-07-22 10:43:37.912,-29.0,,,,0.0
2024-07-22 10:43:37.916,-26.0,,,,0.0
2024-07-22 10:43:37.920,-26.0,,,,0.0
2024-07-22 10:43:37.924,-25.0,,,,0.0
2024-07-22 10:43:37.928,-20.0,,,,0.0
2024-07-22 10:43:37.932,-11.0,,,,0.0
2024-07-22 10:43:37.936,1.0,,,,0.0
2024-07-22 10:43:37.940,9.0,,,,0.0
2024-07-22 10:43:37.944,13.0,,,,0.0
2024-07-22 10:43:37.948,16.0,,,,0.0
2024-07-22 10:43:37.952,21.0,,,,0.0
2024-07-22 10:43:37.956,27.0,,,,0.0
2024-07-22 10:43:37.960,39.0,,,,0.0
2024-07-22 10:43:37.964,53.0,,,,0.0
2024-07-22 10:43:37.968,65.0,,,,0.0
2024-07-22 10:43:37.972,73.0,,,,0.0
2024-07-22 10:43:37.976,77.0,,,,0.0
2024-07-22 10:43:37.980,80.0,,,,0.0
2024-07-22 10:43:37.984,86.0,,,,0.0
2024-07-22 10:43:37.988,99.0,,,,0.0
2024-07-22 10:43:37.992,114.0,,,,0.0
2024-07-22 10:43:37.996,131.0,,,,0.0
2024-07-22 10:43:38.000,144.0,,,,0.0
2024-07-22 10:43:38.004,155.0,,,,0.0
2024-07-22 10:43:38.008,163.0,,,,0.0
2024-07-22 10:43:38.012,170.0,,,,0.0
2024-07-22 10:43:38.016,177.0,,,,0.0
2024-07-22 10:43:38.020,178.0,,,,0.0
2024-07-22 10:43:38.024,173.0,,,,0.0
2024-07-22 10:43:38.028,163.0,,,,0.0
2024-07-22 10:43:38.032,152.0,,,,0.0
2024-07-22 10:43:38.036,151.0,,,,0.0
2024-07-22 10:43:38.040,155.0,,,,0.0
2024-07-22 10:43:38.044,163.0,,,,0.0
2024-07-22 10:43:38.048,169.0,,,,0.0
2024-07-22 10:43:38.052,175.0,,,,0.0
2024-07-22 10:43:38.056,173.0,,,,0.0
2024-07-22 10:43:38.060,167.0,,,,0.0
2024-07-22 10:43:38.064,154.0,,,,0.0
2024-07-22 10:43:38.068,132.0,,,,0.0
2024-07-22 10:43:38.072,112.0,,,,0.0
2024-07-22 10:43:38.076,100.0,,,,0.0
2024-07-22 10:43:38.080,88.0,,,,0.0
2024-07-22 10:43:38.084,73.0,,,,0.0
2024-07-22 10:43:38.088,56.0,,,,0.0
2024-07-22 10:43:38.092,39.0,,,,0.0
2024-07-22 10:43:38.096,28.0,,,,0.0
2024-07-22 10:43:38.100,28.0,,,,0.0
2024-07-22 10:43:38.104,28.0,,,,0.0
2024-07-22 10:43:38.108,19.0,,,,0.0
2024-07-22 10:43:38.112,4.0,,,,0.0
2024-07-22 10:43:38.116,-13.0,,,,0.0
2024-07-22 10:43:38.120,-23.0,,,,0.0
2024-07-22 10:43:38.124,-23.0,,,,0.0
2024-07-22 10:43:38.128,-22.0,,,,0.0
2024-07-22 10:43:38.132,-20.0,,,,0.0
2024-07-22 10:43:38.136,-25.0,,,,0.0
2024-07-22 10:43:38.140,-36.0,,,,0.0
2024-07-22 10:43:38.144,-43.0,,,,0.0
2024-07-22 10:43:38.148,-40.0,,,,0.0
2024-07-22 10:43:38.152,-34.0,,,,0.0
2024-07-22 10:43:38.156,-31.0,,,,0.0
2024-07-22 10:43:38.160,-36.0,,,,0.0
2024-07-22 10:43:38.164,-46.0,,,,0.0
2024-07-22 10:43:38.168,-49.0,,,,0.0
2024-07-22 10:43:38.172,-43.0,,,,0.0
2024-07-22 10:43:38.176,-29.0,,,,0.0
2024-07-22 10:43:38.180,-19.0,,,,0.0
2024-07-22 10:43:38.184,-14.0,,,,0.0
2024-07-22 10:43:38.188,-10.0,,,,0.0
2024-07-22 10:43:38.192,-5.0,,,,0.0
2024-07-22 10:43:38.196,1.0,,,,0.0
2024-07-22 10:43:38.200,3.0,,,,0.0
2024-07-22 10:43:38.204,3.0,,,,0.0
2024-07-22 10:43:38.208,0.0,,,,0.0
2024-07-22 10:43:38.212,-4.0,,,,0.0
2024-07-22 10:43:38.216,-7.0,,,,0.0
2024-07-22 10:43:38.220,-7.0,,,,0.0
2024-07-22 10:43:38.224,-7.0,,,,0.0
2024-07-22 10:43:38.228,-4.0,,,,0.0
2024-07-22 10:43:38.232,1.0,,,,0.0
2024-07-22 10:43:38.236,6.0,,,,0.0
2024-07-22 10:43:38.240,6.0,,,,0.0
2024-07-22 10:43:38.244,1.0,,,,0.0
2024-07-22 10:43:38.248,-8.0,,,,0.0
2024-07-22 10:43:38.252,-14.0,,,,0.0
2024-07-22 10:43:38.256,-16.0,,,,0.0
2024-07-22 10:43:38.260,-19.0,,,,0.0
2024-07-22 10:43:38.264,-22.0,,,,0.0
2024-07-22 10:43:38.268,-31.0,,,,0.0
2024-07-22 10:43:38.272,-39.0,,,,0.0
2024-07-22 10:43:38.276,-45.0,,,,0.0
2024-07-22 10:43:38.280,-43.0,,,,0.0
2024-07-22 10:43:38.284,-39.0,,,,0.0
2024-07-22 10:43:38.288,-29.0,,,,0.0
2024-07-22 10:43:38.292,-19.0,,,,0.0
2024-07-22 10:43:38.296,-10.0,,,,0.0
2024-07-22 10:43:38.300,0.0,,,,0.0
2024-07-22 10:43:38.304,6.0,,,,0.0
2024-07-22 10:43:38.308,12.0,,,,0.0
2024-07-22 10:43:38.312,22.0,,,,0.0
2024-07-22 10:43:38.316,38.0,,,,0.0
2024-07-22 10:43:38.320,62.0,,,,0.0
2024-07-22 10:43:38.324,90.0,,,,0.0
2024-07-22 10:43:38.328,108.0,,,,0.0
2024-07-22 10:43:38.332,99.0,,,,0.0
2024-07-22 10:43:38.336,68.0,,,,0.0
2024-07-22 10:43:38.340,32.0,,,,0.0
2024-07-22 10:43:38.344,9.0,,,,0.0
2024-07-22 10:43:38.348,3.0,,,,0.0
2024-07-22 10:43:38.352,7.0,,,,0.0
2024-07-22 10:43:38.356,7.0,,,,0.0
2024-07-22 10:43:38.360,0.0,,,,0.0
2024-07-22 10:43:38.364,-19.0,,,,0.0
2024-07-22 10:43:38.368,-43.0,,,,0.0
2024-07-22 10:43:38.372,-66.0,,,,0.0
2024-07-22 10:43:38.376,-83.0,,,,0.0
2024-07-22 10:43:38.380,-94.0,,,,0.0
2024-07-22 10:43:38.384,-106.0,,,,0.0
2024-07-22 10:43:38.388,-120.0,,,,0.0
2024-07-22 10:43:38.392,-132.0,,,,0.0
2024-07-22 10:43:38.396,-139.0,,,,0.0
2024-07-22 10:43:38.400,-142.0,,,,0.0
2024-07-22 10:43:38.404,-145.0,,,,0.0
2024-07-22 10:43:38.408,-149.0,,,,0.0
2024-07-22 10:43:38.412,-150.0,,,,0.0
2024-07-22 10:43:38.416,-153.0,,,,0.0
2024-07-22 10:43:38.420,-155.0,,,,0.0
2024-07-22 10:43:38.424,-158.0,,,,0.0
2024-07-22 10:43:38.428,-156.0,,,,0.0
2024-07-22 10:43:38.432,-150.0,,,,0.0
2024-07-22 10:43:38.436,-145.0,,,,0.0
2024-07-22 10:43:38.440,-144.0,,,,0.0
2024-07-22 10:43:38.444,-147.0,,,,0.0
2024-07-22 10:43:38.448,-153.0,,,,0.0
2024-07-22 10:43:38.452,-156.0,,,,0.0
2024-07-22 10:43:38.456,-156.0,,,,0.0
2024-07-22 10:43:38.460,-156.0,,,,0.0
2024-07-22 10:43:38.464,-159.0,,,,0.0
2024-07-22 10:43:38.468,-164.0,,,,0.0
2024-07-22 10:43:38.472,-162.0,,,,0.0
2024-07-22 10:43:38.476,-153.0,,,,0.0
2024-07-22 10:43:38.480,-138.0,,,,0.0
2024-07-22 10:43:38.484,-116.0,,,,0.0
2024-07-22 10:43:38.488,-80.0,,,,0.0
2024-07-22 10:43:38.492,-5.0,,,,100.0
2024-07-22 10:43:38.496,88.0,,,,0.0
2024-07-22 10:43:38.500,157.0,,,,0.0
2024-07-22 10:43:38.504,148.0,,,,0.0
2024-07-22 10:43:38.508,47.0,,,,0.0
2024-07-22 10:43:38.512,-101.0,,,,0.0
2024-07-22 10:43:38.516,-228.0,,,,0.0
2024-07-22 10:43:38.520,-290.0,,,,0.0
2024-07-22 10:43:38.524,-290.0,,,,0.0
2024-07-22 10:43:38.528,-268.0,,,,0.0
2024-07-22 10:43:38.532,-268.0,,,,0.0
2024-07-22 10:43:38.536,-306.0,,,,0.0
2024-07-22 10:43:38.540,-364.0,,,,0.0
2024-07-22 10:43:38.544,-399.0,,,,0.0
2024-07-22 10:43:38.548,-371.0,,,,0.0
2024-07-22 10:43:38.552,-289.0,,,,0.0
2024-07-22 10:43:38.556,-190.0,,,,0.0
2024-07-22 10:43:38.560,-121.0,,,,0.0
2024-07-22 10:43:38.564,-91.0,,,,0.0
2024-07-22 10:43:38.568,-91.0,,,,0.0
2024-07-22 10:43:38.572,-97.0,,,,0.0
2024-07-22 10:43:38.576,-103.0,,,,0.0
2024-07-22 10:43:38.580,-107.0,,,,0.0
2024-07-22 10:43:38.584,-109.0,,,,0.0
2024-07-22 10:43:38.588,-104.0,,,,0.0
2024-07-22 10:43:38.592,-92.0,,,,0.0
2024-07-22 10:43:38.596,-81.0,,,,0.0
2024-07-22 10:43:38.600,-77.0,,,,0.0
2024-07-22 10:43:38.604,-78.0,,,,0.0
2024-07-22 10:43:38.608,-83.0,,,,0.0
2024-07-22 10:43:38.612,-83.0,,,,0.0
2024-07-22 10:43:38.616,-81.0,,,,0.0
2024-07-22 10:43:38.620,-78.0,,,,0.0
2024-07-22 10:43:38.624,-75.0,,,,0.0
2024-07-22 10:43:38.628,-74.0,,,,0.0
2024-07-22 10:43:38.632,-69.0,,,,0.0
2024-07-22 10:43:38.636,-62.0,,,,0.0
2024-07-22 10:43:38.640,-57.0,,,,0.0
2024-07-22 10:43:38.644,-55.0,,,,0.0
2024-07-22 10:43:38.648,-55.0,,,,0.0
2024-07-22 10:43:38.652,-55.0,,,,0.0
2024-07-22 10:43:38.656,-49.0,,,,0.0
2024-07-22 10:43:38.660,-40.0,,,,0.0
2024-07-22 10:43:38.664,-33.0,,,,0.0
2024-07-22 10:43:38.668,-23.0,,,,0.0
2024-07-22 10:43:38.672,-17.0,,,,0.0
2024-07-22 10:43:38.676,-7.0,,,,0.0
2024-07-22 10:43:38.680,6.0,,,,0.0
2024-07-22 10:43:38.684,18.0,,,,0.0
2024-07-22 10:43:38.688,30.0,,,,0.0
2024-07-22 10:43:38.692,38.0,,,,0.0
2024-07-22 10:43:38.696,45.0,,,,0.0
2024-07-22 10:43:38.700,57.0,,,,0.0
2024-07-22 10:43:38.704,74.0,,,,0.0
2024-07-22 10:43:38.708,94.0,,,,0.0
2024-07-22 10:43:38.712,112.0,,,,0.0
2024-07-22 10:43:38.716,126.0,,,,0.0
2024-07-22 10:43:38.720,140.0,,,,0.0
2024-07-22 10:43:38.724,152.0,,,,0.0
2024-07-22 10:43:38.728,166.0,,,,0.0
2024-07-22 10:43:38.732,181.0,,,,0.0
2024-07-22 10:43:38.736,193.0,,,,0.0
2024-07-22 10:43:38.740,199.0,,,,0.0
2024-07-22 10:43:38.744,202.0,,,,0.0
2024-07-22 10:43:38.748,202.0,,,,0.0
2024-07-22 10:43:38.752,202.0,,,,0.0
2024-07-22 10:43:38.756,204.0,,,,0.0
2024-07-22 10:43:38.760,209.0,,,,0.0
2024-07-22 10:43:38.764,213.0,,,,0.0
2024-07-22 10:43:38.768,221.0,,,,0.0
2024-07-22 10:43:38.772,227.0,,,,0.0
2024-07-22 10:43:38.776,233.0,,,,0.0
2024-07-22 10:43:38.780,234.0,,,,0.0
2024-07-22 10:43:38.784,230.0,,,,0.0
2024-07-22 10:43:38.788,221.0,,,,0.0
2024-07-22 10:43:38.792,207.0,,,,0.0
2024-07-22 10:43:38.796,186.0,,,,0.0
2024-07-22 10:43:38.800,161.0,,,,0.0
2024-07-22 10:43:38.804,135.0,,,,0.0
2024-07-22 10:43:38.808,111.0,,,,0.0
2024-07-22 10:43:38.812,94.0,,,,0.0
2024-07-22 10:43:38.816,83.0,,,,0.0
2024-07-22 10:43:38.820,70.0,,,,0.0
2024-07-22 10:43:38.824,53.0,,,,0.0
2024-07-22 10:43:38.828,35.0,,,,0.0
2024-07-22 10:43:38.832,18.0,,,,0.0
2024-07-22 10:43:38.836,9.0,,,,0.0
2024-07-22 10:43:38.840,4.0,,,,0.0
2024-07-22 10:43:38.844,-4.0,,,,0.0
2024-07-22 10:43:38.848,-13.0,,,,0.0
2024-07-22 10:43:38.852,-25.0,,,,0.0
2024-07-22 10:43:38.856,-33.0,,,,0.0
2024-07-22 10:43:38.860,-39.0,,,,0.0
2024-07-22 10:43:38.864,-45.0,,,,0.0
2024-07-22 10:43:38.868,-49.0,,,,0.0
2024-07-22 10:43:38.872,-51.0,,,,0.0
2024-07-22 10:43:38.876,-51.0,,,,0.0
2024-07-22 10:43:38.880,-51.0,,,,0.0
2024-07-22 10:43:38.884,-54.0,,,,0.0
2024-07-22 10:43:38.888,-55.0,,,,0.0
2024-07-22 10:43:38.892,-54.0,,,,0.0
2024-07-22 10:43:38.896,-54.0,,,,0.0
2024-07-22 10:43:38.900,-54.0,,,,0.0
2024-07-22 10:43:38.904,-55.0,,,,0.0
2024-07-22 10:43:38.908,-57.0,,,,0.0
2024-07-22 10:43:38.912,-57.0,,,,0.0
2024-07-22 10:43:38.916,-57.0,,,,0.0
2024-07-22 10:43:38.920,-55.0,,,,0.0
2024-07-22 10:43:38.924,-51.0,,,,0.0
2024-07-22 10:43:38.928,-45.0,,,,0.0
2024-07-22 10:43:38.932,-40.0,,,,0.0
2024-07-22 10:43:38.936,-39.0,,,,0.0
2024-07-22 10:43:38.940,-40.0,,,,0.0
2024-07-22 10:43:38.944,-45.0,,,,0.0
2024-07-22 10:43:38.948,-49.0,,,,0.0
2024-07-22 10:43:38.952,-55.0,,,,0.0
2024-07-22 10:43:38.956,-60.0,,,,0.0
2024-07-22 10:43:38.960,-65.0,,,,0.0
2024-07-22 10:43:38.964,-62.0,,,,0.0
2024-07-22 10:43:38.968,-58.0,,,,0.0
2024-07-22 10:43:38.972,-57.0,,,,0.0
2024-07-22 10:43:38.976,-58.0,,,,0.0
2024-07-22 10:43:38.980,-65.0,,,,0.0
2024-07-22 10:43:38.984,-66.0,,,,0.0
2024-07-22 10:43:38.988,-63.0,,,,0.0
2024-07-22 10:43:38.992,-57.0,,,,0.0
2024-07-22 10:43:38.996,-54.0,,,,0.0
2024-07-22 10:43:39.000,-54.0,,,,0.0
2024-07-22 10:43:39.004,-52.0,,,,0.0
2024-07-22 10:43:39.008,-45.0,,,,0.0
2024-07-22 10:43:39.012,-29.0,,,,0.0
2024-07-22 10:43:39.016,-7.0,,,,0.0
2024-07-22 10:43:39.020,15.0,,,,0.0
2024-07-22 10:43:39.024,33.0,,,,0.0
2024-07-22 10:43:39.028,47.0,,,,0.0
2024-07-22 10:43:39.032,56.0,,,,0.0
2024-07-22 10:43:39.036,62.0,,,,0.0
2024-07-22 10:43:39.040,68.0,,,,0.0
2024-07-22 10:43:39.044,77.0,,,,0.0
2024-07-22 10:43:39.048,91.0,,,,0.0
2024-07-22 10:43:39.052,109.0,,,,0.0
2024-07-22 10:43:39.056,125.0,,,,0.0
2024-07-22 10:43:39.060,128.0,,,,0.0
2024-07-22 10:43:39.064,112.0,,,,0.0
2024-07-22 10:43:39.068,88.0,,,,0.0
2024-07-22 10:43:39.072,64.0,,,,0.0
2024-07-22 10:43:39.076,45.0,,,,0.0
2024-07-22 10:43:39.080,35.0,,,,0.0
2024-07-22 10:43:39.084,25.0,,,,0.0
2024-07-22 10:43:39.088,13.0,,,,0.0
2024-07-22 10:43:39.092,-4.0,,,,0.0
2024-07-22 10:43:39.096,-29.0,,,,0.0
2024-07-22 10:43:39.100,-57.0,,,,0.0
2024-07-22 10:43:39.104,-78.0,,,,0.0
2024-07-22 10:43:39.108,-86.0,,,,0.0
2024-07-22 10:43:39.112,-87.0,,,,0.0
2024-07-22 10:43:39.116,-87.0,,,,0.0
2024-07-22 10:43:39.120,-92.0,,,,0.0
2024-07-22 10:43:39.124,-95.0,,,,0.0
2024-07-22 10:43:39.128,-89.0,,,,0.0
2024-07-22 10:43:39.132,-78.0,,,,0.0
2024-07-22 10:43:39.136,-72.0,,,,0.0
2024-07-22 10:43:39.140,-77.0,,,,0.0
2024-07-22 10:43:39.144,-89.0,,,,0.0
2024-07-22 10:43:39.148,-100.0,,,,0.0
2024-07-22 10:43:39.152,-100.0,,,,0.0
2024-07-22 10:43:39.156,-91.0,,,,0.0
2024-07-22 10:43:39.160,-74.0,,,,0.0
2024-07-22 10:43:39.164,-57.0,,,,0.0
2024-07-22 10:43:39.168,-43.0,,,,0.0
2024-07-22 10:43:39.172,-36.0,,,,0.0
2024-07-22 10:43:39.176,-29.0,,,,0.0
2024-07-22 10:43:39.180,-26.0,,,,0.0
2024-07-22 10:43:39.184,-23.0,,,,0.0
2024-07-22 10:43:39.188,-17.0,,,,0.0
2024-07-22 10:43:39.192,-8.0,,,,0.0
2024-07-22 10:43:39.196,0.0,,,,0.0
2024-07-22 10:43:39.200,10.0,,,,0.0
2024-07-22 10:43:39.204,19.0,,,,0.0
2024-07-22 10:43:39.208,28.0,,,,0.0
2024-07-22 10:43:39.212,41.0,,,,0.0
2024-07-22 10:43:39.216,64.0,,,,0.0
2024-07-22 10:43:39.220,126.0,,,,0.0
2024-07-22 10:43:39.224,238.0,,,,100.0
2024-07-22 10:43:39.228,352.0,,,,0.0
2024-07-22 10:43:39.232,407.0,,,,0.0
2024-07-22 10:43:39.236,360.0,,,,0.0
2024-07-22 10:43:39.240,230.0,,,,0.0
2024-07-22 10:43:39.244,88.0,,,,0.0
2024-07-22 10:43:39.248,-7.0,,,,0.0
2024-07-22 10:43:39.252,-33.0,,,,0.0
2024-07-22 10:43:39.256,-20.0,,,,0.0
2024-07-22 10:43:39.260,-23.0,,,,0.0
2024-07-22 10:43:39.264,-69.0,,,,0.0
2024-07-22 10:43:39.268,-145.0,,,,0.0
2024-07-22 10:43:39.272,-217.0,,,,0.0
2024-07-22 10:43:39.276,-237.0,,,,0.0
2024-07-22 10:43:39.280,-190.0,,,,0.0
2024-07-22 10:43:39.284,-109.0,,,,0.0
2024-07-22 10:43:39.288,-37.0,,,,0.0
2024-07-22 10:43:39.292,-2.0,,,,0.0
2024-07-22 10:43:39.296,1.0,,,,0.0
2024-07-22 10:43:39.300,-8.0,,,,0.0
2024-07-22 10:43:39.304,-14.0,,,,0.0
2024-07-22 10:43:39.308,-10.0,,,,0.0
2024-07-22 10:43:39.312,1.0,,,,0.0
2024-07-22 10:43:39.316,9.0,,,,0.0
2024-07-22 10:43:39.320,6.0,,,,0.0
2024-07-22 10:43:39.324,-2.0,,,,0.0
2024-07-22 10:43:39.328,-13.0,,,,0.0
2024-07-22 10:43:39.332,-20.0,,,,0.0
2024-07-22 10:43:39.336,-22.0,,,,0.0
2024-07-22 10:43:39.340,-23.0,,,,0.0
2024-07-22 10:43:39.344,-20.0,,,,0.0
2024-07-22 10:43:39.348,-13.0,,,,0.0
2024-07-22 10:43:39.352,0.0,,,,0.0
2024-07-22 10:43:39.356,9.0,,,,0.0
2024-07-22 10:43:39.360,13.0,,,,0.0
2024-07-22 10:43:39.364,10.0,,,,0.0
2024-07-22 10:43:39.368,7.0,,,,0.0
2024-07-22 10:43:39.372,4.0,,,,0.0
2024-07-22 10:43:39.376,1.0,,,,0.0
2024-07-22 10:43:39.380,-5.0,,,,0.0
2024-07-22 10:43:39.384,-8.0,,,,0.0
2024-07-22 10:43:39.388,-4.0,,,,0.0
2024-07-22 10:43:39.392,4.0,,,,0.0
2024-07-22 10:43:39.396,9.0,,,,0.0
2024-07-22 10:43:39.400,7.0,,,,0.0
2024-07-22 10:43:39.404,4.0,,,,0.0
2024-07-22 10:43:39.408,7.0,,,,0.0
2024-07-22 10:43:39.412,16.0,,,,0.0
2024-07-22 10:43:39.416,27.0,,,,0.0
2024-07-22 10:43:39.420,33.0,,,,0.0
2024-07-22 10:43:39.424,38.0,,,,0.0
2024-07-22 10:43:39.428,42.0,,,,0.0
2024-07-22 10:43:39.432,48.0,,,,0.0
2024-07-22 10:43:39.436,56.0,,,,0.0
2024-07-22 10:43:39.440,65.0,,,,0.0
2024-07-22 10:43:39.444,71.0,,,,0.0
2024-07-22 10:43:39.448,79.0,,,,0.0
2024-07-22 10:43:39.452,86.0,,,,0.0
2024-07-22 10:43:39.456,93.0,,,,0.0
2024-07-22 10:43:39.460,97.0,,,,0.0
2024-07-22 10:43:39.464,102.0,,,,0.0
2024-07-22 10:43:39.468,111.0,,,,0.0
2024-07-22 10:43:39.472,125.0,,,,0.0
2024-07-22 10:43:39.476,140.0,,,,0.0
2024-07-22 10:43:39.480,154.0,,,,0.0
2024-07-22 10:43:39.484,163.0,,,,0.0
2024-07-22 10:43:39.488,170.0,,,,0.0
2024-07-22 10:43:39.492,178.0,,,,0.0
2024-07-22 10:43:39.496,187.0,,,,0.0
2024-07-22 10:43:39.500,198.0,,,,0.0
2024-07-22 10:43:39.504,205.0,,,,0.0
2024-07-22 10:43:39.508,213.0,,,,0.0
2024-07-22 10:43:39.512,218.0,,,,0.0
2024-07-22 10:43:39.516,222.0,,,,0.0
2024-07-22 10:43:39.520,227.0,,,,0.0
2024-07-22 10:43:39.524,228.0,,,,0.0
2024-07-22 10:43:39.528,222.0,,,,0.0
2024-07-22 10:43:39.532,213.0,,,,0.0
2024-07-22 10:43:39.536,202.0,,,,0.0
2024-07-22 10:43:39.540,193.0,,,,0.0
2024-07-22 10:43:39.544,183.0,,,,0.0
2024-07-22 10:43:39.548,167.0,,,,0.0
2024-07-22 10:43:39.552,148.0,,,,0.0
2024-07-22 10:43:39.556,129.0,,,,0.0
2024-07-22 10:43:39.560,115.0,,,,0.0
2024-07-22 10:43:39.564,105.0,,,,0.0
2024-07-22 10:43:39.568,93.0,,,,0.0
2024-07-22 10:43:39.572,79.0,,,,0.0
2024-07-22 10:43:39.576,64.0,,,,0.0
2024-07-22 10:43:39.580,54.0,,,,0.0
2024-07-22 10:43:39.584,47.0,,,,0.0
2024-07-22 10:43:39.588,36.0,,,,0.0
2024-07-22 10:43:39.592,18.0,,,,0.0
2024-07-22 10:43:39.596,-2.0,,,,0.0
2024-07-22 10:43:39.600,-13.0,,,,0.0
2024-07-22 10:43:39.604,-11.0,,,,0.0
2024-07-22 10:43:39.608,-5.0,,,,0.0
2024-07-22 10:43:39.612,-2.0,,,,0.0
2024-07-22 10:43:39.616,-4.0,,,,0.0
2024-07-22 10:43:39.620,-7.0,,,,0.0
2024-07-22 10:43:39.624,-8.0,,,,0.0
2024-07-22 10:43:39.628,-4.0,,,,0.0
2024-07-22 10:43:39.632,6.0,,,,0.0
2024-07-22 10:43:39.636,10.0,,,,0.0
2024-07-22 10:43:39.640,10.0,,,,0.0
2024-07-22 10:43:39.644,3.0,,,,0.0
2024-07-22 10:43:39.648,-2.0,,,,0.0
2024-07-22 10:43:39.652,1.0,,,,0.0
2024-07-22 10:43:39.656,19.0,,,,0.0
2024-07-22 10:43:39.660,42.0,,,,0.0
2024-07-22 10:43:39.664,64.0,,,,0.0
2024-07-22 10:43:39.668,74.0,,,,0.0
2024-07-22 10:43:39.672,77.0,,,,0.0
2024-07-22 10:43:39.676,80.0,,,,0.0
2024-07-22 10:43:39.680,90.0,,,,0.0
2024-07-22 10:43:39.684,102.0,,,,0.0
2024-07-22 10:43:39.688,115.0,,,,0.0
2024-07-22 10:43:39.692,126.0,,,,0.0
2024-07-22 10:43:39.696,135.0,,,,0.0
2024-07-22 10:43:39.700,141.0,,,,0.0
2024-07-22 10:43:39.704,149.0,,,,0.0
2024-07-22 10:43:39.708,157.0,,,,0.0
2024-07-22 10:43:39.712,163.0,,,,0.0
2024-07-22 10:43:39.716,163.0,,,,0.0
2024-07-22 10:43:39.720,157.0,,,,0.0
2024-07-22 10:43:39.724,141.0,,,,0.0
2024-07-22 10:43:39.728,126.0,,,,0.0
2024-07-22 10:43:39.732,115.0,,,,0.0
2024-07-22 10:43:39.736,119.0,,,,0.0
2024-07-22 10:43:39.740,132.0,,,,0.0
2024-07-22 10:43:39.744,152.0,,,,0.0
2024-07-22 10:43:39.748,170.0,,,,0.0
2024-07-22 10:43:39.752,184.0,,,,0.0
2024-07-22 10:43:39.756,190.0,,,,0.0
2024-07-22 10:43:39.760,192.0,,,,0.0
2024-07-22 10:43:39.764,190.0,,,,0.0
2024-07-22 10:43:39.768,190.0,,,,0.0
2024-07-22 10:43:39.772,195.0,,,,0.0
2024-07-22 10:43:39.776,209.0,,,,0.0
2024-07-22 10:43:39.780,231.0,,,,0.0
2024-07-22 10:43:39.784,253.0,,,,0.0
2024-07-22 10:43:39.788,257.0,,,,0.0
2024-07-22 10:43:39.792,242.0,,,,0.0
2024-07-22 10:43:39.796,215.0,,,,0.0
2024-07-22 10:43:39.800,187.0,,,,0.0
2024-07-22 10:43:39.804,169.0,,,,0.0
2024-07-22 10:43:39.808,158.0,,,,0.0
2024-07-22 10:43:39.812,149.0,,,,0.0
2024-07-22 10:43:39.816,143.0,,,,0.0
2024-07-22 10:43:39.820,135.0,,,,0.0
2024-07-22 10:43:39.824,122.0,,,,0.0
2024-07-22 10:43:39.828,102.0,,,,0.0
2024-07-22 10:43:39.832,76.0,,,,0.0
2024-07-22 10:43:39.836,56.0,,,,0.0
2024-07-22 10:43:39.840,44.0,,,,0.0
2024-07-22 10:43:39.844,38.0,,,,0.0
2024-07-22 10:43:39.848,32.0,,,,0.0
2024-07-22 10:43:39.852,21.0,,,,0.0
2024-07-22 10:43:39.856,12.0,,,,0.0
2024-07-22 10:43:39.860,4.0,,,,0.0
2024-07-22 10:43:39.864,1.0,,,,0.0
2024-07-22 10:43:39.868,0.0,,,,0.0
2024-07-22 10:43:39.872,-2.0,,,,0.0
2024-07-22 10:43:39.876,-7.0,,,,0.0
2024-07-22 10:43:39.880,-10.0,,,,0.0
2024-07-22 10:43:39.884,-14.0,,,,0.0
2024-07-22 10:43:39.888,-19.0,,,,0.0
2024-07-22 10:43:39.892,-22.0,,,,0.0
2024-07-22 10:43:39.896,-20.0,,,,0.0
2024-07-22 10:43:39.900,-20.0,,,,0.0
2024-07-22 10:43:39.904,-22.0,,,,0.0
2024-07-22 10:43:39.908,-23.0,,,,0.0
2024-07-22 10:43:39.912,-23.0,,,,0.0
2024-07-22 10:43:39.916,-19.0,,,,0.0
2024-07-22 10:43:39.920,-17.0,,,,0.0
2024-07-22 10:43:39.924,-22.0,,,,0.0
2024-07-22 10:43:39.928,-28.0,,,,0.0
2024-07-22 10:43:39.932,-31.0,,,,0.0
2024-07-22 10:43:39.936,-23.0,,,,0.0
2024-07-22 10:43:39.940,-5.0,,,,0.0
2024-07-22 10:43:39.944,24.0,,,,0.0
2024-07-22 10:43:39.948,83.0,,,,100.0
2024-07-22 10:43:39.952,186.0,,,,0.0
2024-07-22 10:43:39.956,299.0,,,,0.0
2024-07-22 10:43:39.960,369.0,,,,0.0
2024-07-22 10:43:39.964,346.0,,,,0.0
2024-07-22 10:43:39.968,231.0,,,,0.0
2024-07-22 10:43:39.972,80.0,,,,0.0
2024-07-22 10:43:39.976,-43.0,,,,0.0
2024-07-22 10:43:39.980,-103.0,,,,0.0
2024-07-22 10:43:39.984,-112.0,,,,0.0
2024-07-22 10:43:39.988,-112.0,,,,0.0
2024-07-22 10:43:39.992,-142.0,,,,0.0
2024-07-22 10:43:39.996,-205.0,,,,0.0
2024-07-22 10:43:40.000,-268.0,,,,0.0
2024-07-22 10:43:40.004,-280.0,,,,0.0
